1531406790550,376,1531406790558,454,1531406790566,525,1531406790574,598,1531406790582,671,1531406790590,718,1531406790598,718,1531406790606,681,1531406790614,591,1531406790622,447,1531406790630,303,1531406790638,181,1531406790646,78,1531406790654,10,1531406790662,-32,1531406790670,-78,1531406790678,-112,1531406790686,-137,1531406790694,-176,1531406790702,-198,1531406790710,-186,1531406790718,-183,1531406790726,-183,1531406790734,-161,1531406790742,-154,1531406790750,-166,1531406790758,-168,1531406790766,-161,1531406790774,-144,1531406790782,-134,1531406790790,-134,1531406790798,-129,1531406790806,-127,1531406790814,-139,1531406790822,-151,1531406790830,-134,1531406790838,-110,1531406790846,-120,1531406790854,-139,1531406790862,-127,1531406790870,-112,1531406790878,-115,1531406790886,-117,1531406790894,-122,1531406790902,-107,1531406790910,-100,1531406790918,-127,1531406790926,-127,1531406790934,-98,1531406790942,-117,1531406790950,-139,1531406790958,-107,1531406790966,-88,1531406790974,-112,1531406790982,-122,1531406790990,-105,1531406790998,-105,1531406791006,-117,1531406791014,-120,1531406791022,-117,1531406791030,-112,1531406791038,-103,1531406791046,-100,1531406791054,-103,1531406791062,-93,1531406791070,-78,1531406791078,-54,1531406791086,-29,1531406791094,-24,1531406791102,2,1531406791110,85,1531406791118,149,1531406791126,129,1531406791134,83,1531406791142,49,1531406791150,-7,1531406791158,-66,1531406791166,-95,1531406791174,-107,1531406791182,-127,1531406791190,-137,1531406791198,-117,1531406791206,-220,1531406791214,-425,1531406791222,27,1531406791230,1216,1531406791238,1643,1531406791246,801,1531406791254,-15,1531406791262,-173,1531406791270,-98,1531406791278,-15,1531406791286,17,1531406791294,-12,1531406791302,-10,1531406791310,7,1531406791318,20,1531406791326,51,1531406791334,88,1531406791342,144,1531406791350,225,1531406791358,303,1531406791366,376,1531406791374,454,1531406791382,525,1531406791390,598,1531406791398,671,1531406791406,718,1531406791414,718,1531406791422,681,1531406791430,591,1531406791438,447,1531406791446,303,1531406791454,181,1531406791462,78,1531406791470,10,1531406791478,-32,1531406791486,-78,1531406791494,-112,1531406791502,-137,1531406791510,-176,1531406791518,-198,1531406791526,-186,1531406791534,-183,1531406791542,-183,1531406791550,-161,1531406791558,-154,1531406791566,-166,1531406791574,-168,1531406791582,-161,1531406791590,-144,1531406791598,-134,1531406791606,-134,1531406791614,-129,1531406791622,-127,1531406791630,-139,1531406791638,-151,1531406791646,-134,1531406791654,-110,1531406791662,-120,1531406791670,-139,1531406791678,-127,1531406791686,-112,1531406791694,-115,1531406791702,-117,1531406791710,-122,1531406791718,-107,1531406791726,-100,1531406791734,-127,1531406791742,-127,1531406791750,-98,1531406791758,-117,1531406791766,-139,1531406791774,-107,1531406791782,-88,1531406791790,-112,1531406791798,-122,1531406791806,-105,1531406791814,-105,1531406791822,-117,1531406791830,-120,1531406791838,-117,1531406791846,-112,1531406791854,-103,1531406791862,-100,1531406791870,-103,1531406791878,-93,1531406791886,-78,1531406791894,-54,1531406791902,-29,1531406791910,-24,1531406791918,2,1531406791926,85,1531406791934,149,1531406791942,129,1531406791950,83,1531406791958,49,1531406791966,-7,1531406791974,-66,1531406791982,-95,1531406791990,-107,1531406791998,-127,1531406792006,-137,1531406792014,-117,1531406792022,-220,1531406792030,-425,1531406792038,27,1531406792046,1216,1531406792054,1643,1531406792062,801,1531406792070,-15,1531406792078,-173,1531406792086,-98,1531406792094,-15,1531406792102,17,1531406792110,-12,1531406792118,-10,1531406792126,7,1531406792134,20,1531406792142,51,1531406792150,88,1531406792158,144,1531406792166,225,1531406792174,303,1531406792182,376,1531406792190,454,1531406792198,525,1531406792206,598,1531406792214,671,1531406792222,718,1531406792230,718,1531406792238,681,1531406792246,591,1531406792254,447,1531406792262,303,1531406792270,181,1531406792278,78,1531406792286,10,1531406792294,-32,1531406792302,-78,1531406792310,-112,1531406792318,-137,1531406792326,-176,1531406792334,-198,1531406792342,-186,1531406792350,-183,1531406792358,-183,1531406792366,-161,1531406792374,-154,1531406792382,-166,1531406792390,-168,1531406792398,-161,1531406792406,-144,1531406792414,-134,1531406792422,-134,1531406792430,-129,1531406792438,-127,1531406792446,-139,1531406792454,-151,1531406792462,-134,1531406792470,-110,1531406792478,-120,1531406792486,-139,1531406792494,-127,1531406792502,-112,1531406792510,-115,1531406792518,-117,1531406792526,-122,1531406792534,-107,1531406792542,-100,1531406792550,-127,1531406792558,-127,1531406792566,-98,1531406792574,-117,1531406792582,-139,1531406792590,-107,1531406792598,-88,1531406792606,-112,1531406792614,-122,1531406792622,-105,1531406792630,-105,1531406792638,-117,1531406792646,-120,1531406792654,-117,1531406792662,-112,1531406792670,-103,1531406792678,-100,1531406792686,-103,1531406792694,-93,1531406792702,-78,1531406792710,-54,1531406792718,-29,1531406792726,-24,1531406792734,2,1531406792742,85,1531406792750,149,1531406792758,129,1531406792766,83,1531406792774,49,1531406792782,-7,1531406792790,-66,1531406792798,-95,1531406792806,-107,1531406792814,-127,1531406792822,-137,1531406792830,-117,1531406792838,-220,1531406792846,-425,1531406792854,27,1531406792862,1216,1531406792870,1643,1531406792878,801,1531406792886,-15,1531406792894,-173,1531406792902,-98,1531406792910,-15,1531406792918,17,1531406792926,-12,1531406792934,-10,1531406792942,7
1531406792950,20,1531406792958,51,1531406792966,88,1531406792974,144,1531406792982,225,1531406792990,303,1531406792998,376,1531406793006,454,1531406793014,525,1531406793022,598,1531406793030,671,1531406793038,718,1531406793046,718,1531406793054,681,1531406793062,591,1531406793070,447,1531406793078,303,1531406793086,181,1531406793094,78,1531406793102,10,1531406793110,-32,1531406793118,-78,1531406793126,-112,1531406793134,-137,1531406793142,-176,1531406793150,-198,1531406793158,-186,1531406793166,-183,1531406793174,-183,1531406793182,-161,1531406793190,-154,1531406793198,-166,1531406793206,-168,1531406793214,-161,1531406793222,-144,1531406793230,-134,1531406793238,-134,1531406793246,-129,1531406793254,-127,1531406793262,-139,1531406793270,-151,1531406793278,-134,1531406793286,-110,1531406793294,-120,1531406793302,-139,1531406793310,-127,1531406793318,-112,1531406793326,-115,1531406793334,-117,1531406793342,-122,1531406793350,-107,1531406793358,-100,1531406793366,-127,1531406793374,-127,1531406793382,-98,1531406793390,-117,1531406793398,-139,1531406793406,-107,1531406793414,-88,1531406793422,-112,1531406793430,-122,1531406793438,-105,1531406793446,-105,1531406793454,-117,1531406793462,-120,1531406793470,-117,1531406793478,-112,1531406793486,-103,1531406793494,-100,1531406793502,-103,1531406793510,-93,1531406793518,-78,1531406793526,-54,1531406793534,-29,1531406793542,-24,1531406793550,2,1531406793558,85,1531406793566,149,1531406793574,129,1531406793582,83,1531406793590,49,1531406793598,-7,1531406793606,-66,1531406793614,-95,1531406793622,-107,1531406793630,-127,1531406793638,-137,1531406793646,-117,1531406793654,-220,1531406793662,-425,1531406793670,27,1531406793678,1216,1531406793686,1643,1531406793694,801,1531406793702,-15,1531406793710,-173,1531406793718,-98,1531406793726,-15,1531406793734,17,1531406793742,-12,1531406793750,-10,1531406793758,7,1531406793766,20,1531406793774,51,1531406793782,88,1531406793790,144,1531406793798,225,1531406793806,303,1531406793814,376,1531406793822,454,1531406793830,525,1531406793838,598,1531406793846,671,1531406793854,718,1531406793862,718,1531406793870,681,1531406793878,591,1531406793886,447,1531406793894,303,1531406793902,181,1531406793910,78,1531406793918,10,1531406793926,-32,1531406793934,-78,1531406793942,-112,1531406793950,-137,1531406793958,-176,1531406793966,-198,1531406793974,-186,1531406793982,-183,1531406793990,-183,1531406793998,-161,1531406794006,-154,1531406794014,-166,1531406794022,-168,1531406794030,-161,1531406794038,-144,1531406794046,-134,1531406794054,-134,1531406794062,-129,1531406794070,-127,1531406794078,-139,1531406794086,-151,1531406794094,-134,1531406794102,-110,1531406794110,-120,1531406794118,-139,1531406794126,-127,1531406794134,-112,1531406794142,-115,1531406794150,-117,1531406794158,-122,1531406794166,-107,1531406794174,-100,1531406794182,-127,1531406794190,-127,1531406794198,-98,1531406794206,-117,1531406794214,-139,1531406794222,-107,1531406794230,-88,1531406794238,-112,1531406794246,-122,1531406794254,-105,1531406794262,-105,1531406794270,-117,1531406794278,-120,1531406794286,-117,1531406794294,-112,1531406794302,-103,1531406794310,-100,1531406794318,-103,1531406794326,-93,1531406794334,-78,1531406794342,-54,1531406794350,-29,1531406794358,-24,1531406794366,2,1531406794374,85,1531406794382,149,1531406794390,129,1531406794398,83,1531406794406,49,1531406794414,-7,1531406794422,-66,1531406794430,-95,1531406794438,-107,1531406794446,-127,1531406794454,-137,1531406794462,-117,1531406794470,-220,1531406794478,-425,1531406794486,27,1531406794494,1216,1531406794502,1643,1531406794510,801,1531406794518,-15,1531406794526,-173,1531406794534,-98,1531406794542,-15,1531406794550,17,1531406794558,-12,1531406794566,-10,1531406794574,7,1531406794582,20,1531406794590,51,1531406794598,88,1531406794606,144,1531406794614,225,1531406794622,303,1531406794630,376,1531406794638,454,1531406794646,525,1531406794654,598,1531406794662,671,1531406794670,718,1531406794678,718,1531406794686,681,1531406794694,591,1531406794702,447,1531406794710,303,1531406794718,181,1531406794726,78,1531406794734,10,1531406794742,-32,1531406794750,-78,1531406794758,-112,1531406794766,-137,1531406794774,-176,1531406794782,-198,1531406794790,-186,1531406794798,-183,1531406794806,-183,1531406794814,-161,1531406794822,-154,1531406794830,-166,1531406794838,-168,1531406794846,-161,1531406794854,-144,1531406794862,-134,1531406794870,-134,1531406794878,-129,1531406794886,-127,1531406794894,-139,1531406794902,-151,1531406794910,-134,1531406794918,-110,1531406794926,-120,1531406794934,-139,1531406794942,-127,1531406794950,-112,1531406794958,-115,1531406794966,-117,1531406794974,-122,1531406794982,-107,1531406794990,-100,1531406794998,-127,1531406795006,-127,1531406795014,-98,1531406795022,-117,1531406795030,-139,1531406795038,-107,1531406795046,-88,1531406795054,-112,1531406795062,-122,1531406795070,-105,1531406795078,-105,1531406795086,-117,1531406795094,-120,1531406795102,-117,1531406795110,-112,1531406795118,-103,1531406795126,-100,1531406795134,-103,1531406795142,-93,1531406795150,-78,1531406795158,-54,1531406795166,-29,1531406795174,-24,1531406795182,2,1531406795190,85,1531406795198,149,1531406795206,129,1531406795214,83,1531406795222,49,1531406795230,-7,1531406795238,-66,1531406795246,-95,1531406795254,-107,1531406795262,-127,1531406795270,-137,1531406795278,-117,1531406795286,-220,1531406795294,-425,1531406795302,27,1531406795310,1216,1531406795318,1643,1531406795326,801,1531406795334,-15,1531406795342,-173,1531406795350,-98
1531406795358,-15,1531406795366,17,1531406795374,-12,1531406795382,-10,1531406795390,7,1531406795398,20,1531406795406,51,1531406795414,88,1531406795422,144,1531406795430,225,1531406795438,303,1531406795446,376,1531406795454,454,1531406795462,525,1531406795470,598,1531406795478,671,1531406795486,718,1531406795494,718,1531406795502,681,1531406795510,591,1531406795518,447,1531406795526,303,1531406795534,181,1531406795542,78,1531406795550,10,1531406795558,-32,1531406795566,-78,1531406795574,-112,1531406795582,-137,1531406795590,-176,1531406795598,-198,1531406795606,-186,1531406795614,-183,1531406795622,-183,1531406795630,-161,1531406795638,-154,1531406795646,-166,1531406795654,-168,1531406795662,-161,1531406795670,-144,1531406795678,-134,1531406795686,-134,1531406795694,-129,1531406795702,-127,1531406795710,-139,1531406795718,-151,1531406795726,-134,1531406795734,-110,1531406795742,-120,1531406795750,-139,1531406795758,-127,1531406795766,-112,1531406795774,-115,1531406795782,-117,1531406795790,-122,1531406795798,-107,1531406795806,-100,1531406795814,-127,1531406795822,-127,1531406795830,-98,1531406795838,-117,1531406795846,-139,1531406795854,-107,1531406795862,-88,1531406795870,-112,1531406795878,-122,1531406795886,-105,1531406795894,-105,1531406795902,-117,1531406795910,-120,1531406795918,-117,1531406795926,-112,1531406795934,-103,1531406795942,-100,1531406795950,-103,1531406795958,-93,1531406795966,-78,1531406795974,-54,1531406795982,-29,1531406795990,-24,1531406795998,2,1531406796006,85,1531406796014,149,1531406796022,129,1531406796030,83,1531406796038,49,1531406796046,-7,1531406796054,-66,1531406796062,-95,1531406796070,-107,1531406796078,-127,1531406796086,-137,1531406796094,-117,1531406796102,-220,1531406796110,-425,1531406796118,27,1531406796126,1216,1531406796134,1643,1531406796142,801,1531406796150,-15,1531406796158,-173,1531406796166,-98,1531406796174,-15,1531406796182,17,1531406796190,-12,1531406796198,-10,1531406796206,7,1531406796214,20,1531406796222,51,1531406796230,88,1531406796238,144,1531406796246,225,1531406796254,303,1531406796262,376,1531406796270,454,1531406796278,525,1531406796286,598,1531406796294,671,1531406796302,718,1531406796310,718,1531406796318,681,1531406796326,591,1531406796334,447,1531406796342,303,1531406796350,181,1531406796358,78,1531406796366,10,1531406796374,-32,1531406796382,-78,1531406796390,-112,1531406796398,-137,1531406796406,-176,1531406796414,-198,1531406796422,-186,1531406796430,-183,1531406796438,-183,1531406796446,-161,1531406796454,-154,1531406796462,-166,1531406796470,-168,1531406796478,-161,1531406796486,-144,1531406796494,-134,1531406796502,-134,1531406796510,-129,1531406796518,-127,1531406796526,-139,1531406796534,-151,1531406796542,-134,1531406796550,-110,1531406796558,-120,1531406796566,-139,1531406796574,-127,1531406796582,-112,1531406796590,-115,1531406796598,-117,1531406796606,-122,1531406796614,-107,1531406796622,-100,1531406796630,-127,1531406796638,-127,1531406796646,-98,1531406796654,-117,1531406796662,-139,1531406796670,-107,1531406796678,-88,1531406796686,-112,1531406796694,-122,1531406796702,-105,1531406796710,-105,1531406796718,-117,1531406796726,-120,1531406796734,-117,1531406796742,-112,1531406796750,-103,1531406796758,-100,1531406796766,-103,1531406796774,-93,1531406796782,-78,1531406796790,-54,1531406796798,-29,1531406796806,-24,1531406796814,2,1531406796822,85,1531406796830,149,1531406796838,129,1531406796846,83,1531406796854,49,1531406796862,-7,1531406796870,-66,1531406796878,-95,1531406796886,-107,1531406796894,-127,1531406796902,-137,1531406796910,-117,1531406796918,-220,1531406796926,-425,1531406796934,27,1531406796942,1216,1531406796950,1643,1531406796958,801,1531406796966,-15,1531406796974,-173,1531406796982,-98,1531406796990,-15,1531406796998,17,1531406797006,-12,1531406797014,-10,1531406797022,7,1531406797030,20,1531406797038,51,1531406797046,88,1531406797054,144,1531406797062,225,1531406797070,303,1531406797078,376,1531406797086,454,1531406797094,525,1531406797102,598,1531406797110,671,1531406797118,718,1531406797126,718,1531406797134,681,1531406797142,591,1531406797150,447,1531406797158,303,1531406797166,181,1531406797174,78,1531406797182,10,1531406797190,-32,1531406797198,-78,1531406797206,-112,1531406797214,-137,1531406797222,-176,1531406797230,-198,1531406797238,-186,1531406797246,-183,1531406797254,-183,1531406797262,-161,1531406797270,-154,1531406797278,-166,1531406797286,-168,1531406797294,-161,1531406797302,-144,1531406797310,-134,1531406797318,-134,1531406797326,-129,1531406797334,-127,1531406797342,-139,1531406797350,-151,1531406797358,-134,1531406797366,-110,1531406797374,-120,1531406797382,-139,1531406797390,-127,1531406797398,-112,1531406797406,-115,1531406797414,-117,1531406797422,-122,1531406797430,-107,1531406797438,-100,1531406797446,-127,1531406797454,-127,1531406797462,-98,1531406797470,-117,1531406797478,-139,1531406797486,-107,1531406797494,-88,1531406797502,-112,1531406797510,-122,1531406797518,-105,1531406797526,-105,1531406797534,-117,1531406797542,-120,1531406797550,-117,1531406797558,-112,1531406797566,-103,1531406797574,-100,1531406797582,-103,1531406797590,-93,1531406797598,-78,1531406797606,-54,1531406797614,-29,1531406797622,-24,1531406797630,2,1531406797638,85,1531406797646,149,1531406797654,129,1531406797662,83,1531406797670,49,1531406797678,-7,1531406797686,-66,1531406797694,-95,1531406797702,-107,1531406797710,-127,1531406797718,-137,1531406797726,-117,1531406797734,-220,1531406797742,-425,1531406797750,27,1531406797758,1216
1531406797766,1643,1531406797774,801,1531406797782,-15,1531406797790,-173,1531406797798,-98,1531406797806,-15,1531406797814,17,1531406797822,-12,1531406797830,-10,1531406797838,7,1531406797846,20,1531406797854,51,1531406797862,88,1531406797870,144,1531406797878,225,1531406797886,303,1531406797894,376,1531406797902,454,1531406797910,525,1531406797918,598,1531406797926,671,1531406797934,718,1531406797942,718,1531406797950,681,1531406797958,591,1531406797966,447,1531406797974,303,1531406797982,181,1531406797990,78,1531406797998,10,1531406798006,-32,1531406798014,-78,1531406798022,-112,1531406798030,-137,1531406798038,-176,1531406798046,-198,1531406798054,-186,1531406798062,-183,1531406798070,-183,1531406798078,-161,1531406798086,-154,1531406798094,-166,1531406798102,-168,1531406798110,-161,1531406798118,-144,1531406798126,-134,1531406798134,-134,1531406798142,-129,1531406798150,-127,1531406798158,-139,1531406798166,-151,1531406798174,-134,1531406798182,-110,1531406798190,-120,1531406798198,-139,1531406798206,-127,1531406798214,-112,1531406798222,-115,1531406798230,-117,1531406798238,-122,1531406798246,-107,1531406798254,-100,1531406798262,-127,1531406798270,-127,1531406798278,-98,1531406798286,-117,1531406798294,-139,1531406798302,-107,1531406798310,-88,1531406798318,-112,1531406798326,-122,1531406798334,-105,1531406798342,-105,1531406798350,-117,1531406798358,-120,1531406798366,-117,1531406798374,-112,1531406798382,-103,1531406798390,-100,1531406798398,-103,1531406798406,-93,1531406798414,-78,1531406798422,-54,1531406798430,-29,1531406798438,-24,1531406798446,2,1531406798454,85,1531406798462,149,1531406798470,129,1531406798478,83,1531406798486,49,1531406798494,-7,1531406798502,-66,1531406798510,-95,1531406798518,-107,1531406798526,-127,1531406798534,-137,1531406798542,-117,1531406798550,-220,1531406798558,-425,1531406798566,27,1531406798574,1216,1531406798582,1643,1531406798590,801,1531406798598,-15,1531406798606,-173,1531406798614,-98,1531406798622,-15,1531406798630,17,1531406798638,-12,1531406798646,-10,1531406798654,7,1531406798662,20,1531406798670,51,1531406798678,88,1531406798686,144,1531406798694,225,1531406798702,303,1531406798710,376,1531406798718,454,1531406798726,525,1531406798734,598,1531406798742,671,1531406798750,718,1531406798758,718,1531406798766,681,1531406798774,591,1531406798782,447,1531406798790,303,1531406798798,181,1531406798806,78,1531406798814,10,1531406798822,-32,1531406798830,-78,1531406798838,-112,1531406798846,-137,1531406798854,-176,1531406798862,-198,1531406798870,-186,1531406798878,-183,1531406798886,-183,1531406798894,-161,1531406798902,-154,1531406798910,-166,1531406798918,-168,1531406798926,-161,1531406798934,-144,1531406798942,-134,1531406798950,-134,1531406798958,-129,1531406798966,-127,1531406798974,-139,1531406798982,-151,1531406798990,-134,1531406798998,-110,1531406799006,-120,1531406799014,-139,1531406799022,-127,1531406799030,-112,1531406799038,-115,1531406799046,-117,1531406799054,-122,1531406799062,-107,1531406799070,-100,1531406799078,-127,1531406799086,-127,1531406799094,-98,1531406799102,-117,1531406799110,-139,1531406799118,-107,1531406799126,-88,1531406799134,-112,1531406799142,-122,1531406799150,-105,1531406799158,-105,1531406799166,-117,1531406799174,-120,1531406799182,-117,1531406799190,-112,1531406799198,-103,1531406799206,-100,1531406799214,-103,1531406799222,-93,1531406799230,-78,1531406799238,-54,1531406799246,-29,1531406799254,-24,1531406799262,2,1531406799270,85,1531406799278,149,1531406799286,129,1531406799294,83,1531406799302,49,1531406799310,-7,1531406799318,-66,1531406799326,-95,1531406799334,-107,1531406799342,-127,1531406799350,-137,1531406799358,-117,1531406799366,-220,1531406799374,-425,1531406799382,27,1531406799390,1216,1531406799398,1643,1531406799406,801,1531406799414,-15,1531406799422,-173,1531406799430,-98,1531406799438,-15,1531406799446,17,1531406799454,-12,1531406799462,-10,1531406799470,7,1531406799478,20,1531406799486,51,1531406799494,88,1531406799502,144,1531406799510,225,1531406799518,303,1531406799526,376,1531406799534,454,1531406799542,525,1531406799550,598,1531406799558,671,1531406799566,718,1531406799574,718,1531406799582,681,1531406799590,591,1531406799598,447,1531406799606,303,1531406799614,181,1531406799622,78,1531406799630,10,1531406799638,-32,1531406799646,-78,1531406799654,-112,1531406799662,-137,1531406799670,-176,1531406799678,-198,1531406799686,-186,1531406799694,-183,1531406799702,-183,1531406799710,-161,1531406799718,-154,1531406799726,-166,1531406799734,-168,1531406799742,-161,1531406799750,-144,1531406799758,-134,1531406799766,-134,1531406799774,-129,1531406799782,-127,1531406799790,-139,1531406799798,-151,1531406799806,-134,1531406799814,-110,1531406799822,-120,1531406799830,-139,1531406799838,-127,1531406799846,-112,1531406799854,-115,1531406799862,-117,1531406799870,-122,1531406799878,-107,1531406799886,-100,1531406799894,-127,1531406799902,-127,1531406799910,-98,1531406799918,-117,1531406799926,-139,1531406799934,-107,1531406799942,-88,1531406799950,-112,1531406799958,-122,1531406799966,-105,1531406799974,-105,1531406799982,-117,1531406799990,-120,1531406799998,-117,1531406800006,-112,1531406800014,-103,1531406800022,-100,1531406800030,-103,1531406800038,-93,1531406800046,-78,1531406800054,-54,1531406800062,-29,1531406800070,-24,1531406800078,2,1531406800086,85,1531406800094,149,1531406800102,129,1531406800110,83,1531406800118,49,1531406800126,-7,1531406800134,-66,1531406800142,-95,1531406800150,-107,1531406800158,-127,1531406800166,-137
1531406800174,-117,1531406800182,-220,1531406800190,-425,1531406800198,27,1531406800206,1216,1531406800214,1643,1531406800222,801,1531406800230,-15,1531406800238,-173,1531406800246,-98,1531406800254,-15,1531406800262,17,1531406800270,-12,1531406800278,-10,1531406800286,7,1531406800294,20,1531406800302,51,1531406800310,88,1531406800318,144,1531406800326,225,1531406800334,303,1531406800342,376,1531406800350,454,1531406800358,525,1531406800366,598,1531406800374,671,1531406800382,718,1531406800390,718,1531406800398,681,1531406800406,591,1531406800414,447,1531406800422,303,1531406800430,181,1531406800438,78,1531406800446,10,1531406800454,-32,1531406800462,-78,1531406800470,-112,1531406800478,-137,1531406800486,-176,1531406800494,-198,1531406800502,-186,1531406800510,-183,1531406800518,-183,1531406800526,-161,1531406800534,-154,1531406800542,-166,1531406800550,-168,1531406800558,-161,1531406800566,-144,1531406800574,-134,1531406800582,-134,1531406800590,-129,1531406800598,-127,1531406800606,-139,1531406800614,-151,1531406800622,-134,1531406800630,-110,1531406800638,-120,1531406800646,-139,1531406800654,-127,1531406800662,-112,1531406800670,-115,1531406800678,-117,1531406800686,-122,1531406800694,-107,1531406800702,-100,1531406800710,-127,1531406800718,-127,1531406800726,-98,1531406800734,-117,1531406800742,-139,1531406800750,-107,1531406800758,-88,1531406800766,-112,1531406800774,-122,1531406800782,-105,1531406800790,-105,1531406800798,-117,1531406800806,-120,1531406800814,-117,1531406800822,-112,1531406800830,-103,1531406800838,-100,1531406800846,-103,1531406800854,-93,1531406800862,-78,1531406800870,-54,1531406800878,-29,1531406800886,-24,1531406800894,2,1531406800902,85,1531406800910,149,1531406800918,129,1531406800926,83,1531406800934,49,1531406800942,-7,1531406800950,-66,1531406800958,-95,1531406800966,-107,1531406800974,-127,1531406800982,-137,1531406800990,-117,1531406800998,-220,1531406801006,-425,1531406801014,27,1531406801022,1216,1531406801030,1643,1531406801038,801,1531406801046,-15,1531406801054,-173,1531406801062,-98,1531406801070,-15,1531406801078,17,1531406801086,-12,1531406801094,-10,1531406801102,7,1531406801110,20,1531406801118,51,1531406801126,88,1531406801134,144,1531406801142,225,1531406801150,303,1531406801158,376,1531406801166,454,1531406801174,525,1531406801182,598,1531406801190,671,1531406801198,718,1531406801206,718,1531406801214,681,1531406801222,591,1531406801230,447,1531406801238,303,1531406801246,181,1531406801254,78,1531406801262,10,1531406801270,-32,1531406801278,-78,1531406801286,-112,1531406801294,-137,1531406801302,-176,1531406801310,-198,1531406801318,-186,1531406801326,-183,1531406801334,-183,1531406801342,-161,1531406801350,-154,1531406801358,-166,1531406801366,-168,1531406801374,-161,1531406801382,-144,1531406801390,-134,1531406801398,-134,1531406801406,-129,1531406801414,-127,1531406801422,-139,1531406801430,-151,1531406801438,-134,1531406801446,-110,1531406801454,-120,1531406801462,-139,1531406801470,-127,1531406801478,-112,1531406801486,-115,1531406801494,-117,1531406801502,-122,1531406801510,-107,1531406801518,-100,1531406801526,-127,1531406801534,-127,1531406801542,-98,1531406801550,-117,1531406801558,-139,1531406801566,-107,1531406801574,-88,1531406801582,-112,1531406801590,-122,1531406801598,-105,1531406801606,-105,1531406801614,-117,1531406801622,-120,1531406801630,-117,1531406801638,-112,1531406801646,-103,1531406801654,-100,1531406801662,-103,1531406801670,-93,1531406801678,-78,1531406801686,-54,1531406801694,-29,1531406801702,-24,1531406801710,2,1531406801718,85,1531406801726,149,1531406801734,129,1531406801742,83,1531406801750,49,1531406801758,-7,1531406801766,-66,1531406801774,-95,1531406801782,-107,1531406801790,-127,1531406801798,-137,1531406801806,-117,1531406801814,-220,1531406801822,-425,1531406801830,27,1531406801838,1216,1531406801846,1643,1531406801854,801,1531406801862,-15,1531406801870,-173,1531406801878,-98,1531406801886,-15,1531406801894,17,1531406801902,-12,1531406801910,-10,1531406801918,7,1531406801926,20,1531406801934,51,1531406801942,88,1531406801950,144,1531406801958,225,1531406801966,303,1531406801974,376,1531406801982,454,1531406801990,525,1531406801998,598,1531406802006,671,1531406802014,718,1531406802022,718,1531406802030,681,1531406802038,591,1531406802046,447,1531406802054,303,1531406802062,181,1531406802070,78,1531406802078,10,1531406802086,-32,1531406802094,-78,1531406802102,-112,1531406802110,-137,1531406802118,-176,1531406802126,-198,1531406802134,-186,1531406802142,-183,1531406802150,-183,1531406802158,-161,1531406802166,-154,1531406802174,-166,1531406802182,-168,1531406802190,-161,1531406802198,-144,1531406802206,-134,1531406802214,-134,1531406802222,-129,1531406802230,-127,1531406802238,-139,1531406802246,-151,1531406802254,-134,1531406802262,-110,1531406802270,-120,1531406802278,-139,1531406802286,-127,1531406802294,-112,1531406802302,-115,1531406802310,-117,1531406802318,-122,1531406802326,-107,1531406802334,-100,1531406802342,-127,1531406802350,-127,1531406802358,-98,1531406802366,-117,1531406802374,-139,1531406802382,-107,1531406802390,-88,1531406802398,-112,1531406802406,-122,1531406802414,-105,1531406802422,-105,1531406802430,-117,1531406802438,-120,1531406802446,-117,1531406802454,-112,1531406802462,-103,1531406802470,-100,1531406802478,-103,1531406802486,-93,1531406802494,-78,1531406802502,-54,1531406802510,-29,1531406802518,-24,1531406802526,2,1531406802534,85,1531406802542,149,1531406802550,129,1531406802558,83,1531406802566,49,1531406802574,-7
1531406802582,-66,1531406802590,-95,1531406802598,-107,1531406802606,-127,1531406802614,-137,1531406802622,-117,1531406802630,-220,1531406802638,-425,1531406802646,27,1531406802654,1216,1531406802662,1643,1531406802670,801,1531406802678,-15,1531406802686,-173,1531406802694,-98,1531406802702,-15,1531406802710,17,1531406802718,-12,1531406802726,-10,1531406802734,7,1531406802742,20,1531406802750,51,1531406802758,88,1531406802766,144,1531406802774,225,1531406802782,303,1531406802790,376,1531406802798,454,1531406802806,525,1531406802814,598,1531406802822,671,1531406802830,718,1531406802838,718,1531406802846,681,1531406802854,591,1531406802862,447,1531406802870,303,1531406802878,181,1531406802886,78,1531406802894,10,1531406802902,-32,1531406802910,-78,1531406802918,-112,1531406802926,-137,1531406802934,-176,1531406802942,-198,1531406802950,-186,1531406802958,-183,1531406802966,-183,1531406802974,-161,1531406802982,-154,1531406802990,-166,1531406802998,-168,1531406803006,-161,1531406803014,-144,1531406803022,-134,1531406803030,-134,1531406803038,-129,1531406803046,-127,1531406803054,-139,1531406803062,-151,1531406803070,-134,1531406803078,-110,1531406803086,-120,1531406803094,-139,1531406803102,-127,1531406803110,-112,1531406803118,-115,1531406803126,-117,1531406803134,-122,1531406803142,-107,1531406803150,-100,1531406803158,-127,1531406803166,-127,1531406803174,-98,1531406803182,-117,1531406803190,-139,1531406803198,-107,1531406803206,-88,1531406803214,-112,1531406803222,-122,1531406803230,-105,1531406803238,-105,1531406803246,-117,1531406803254,-120,1531406803262,-117,1531406803270,-112,1531406803278,-103,1531406803286,-100,1531406803294,-103,1531406803302,-93,1531406803310,-78,1531406803318,-54,1531406803326,-29,1531406803334,-24,1531406803342,2,1531406803350,85,1531406803358,149,1531406803366,129,1531406803374,83,1531406803382,49,1531406803390,-7,1531406803398,-66,1531406803406,-95,1531406803414,-107,1531406803422,-127,1531406803430,-137,1531406803438,-117,1531406803446,-220,1531406803454,-425,1531406803462,27,1531406803470,1216,1531406803478,1643,1531406803486,801,1531406803494,-15,1531406803502,-173,1531406803510,-98,1531406803518,-15,1531406803526,17,1531406803534,-12,1531406803542,-10,1531406803550,7,1531406803558,20,1531406803566,51,1531406803574,88,1531406803582,144,1531406803590,225,1531406803598,303,1531406803606,376,1531406803614,454,1531406803622,525,1531406803630,598,1531406803638,671,1531406803646,718,1531406803654,718,1531406803662,681,1531406803670,591,1531406803678,447,1531406803686,303,1531406803694,181,1531406803702,78,1531406803710,10,1531406803718,-32,1531406803726,-78,1531406803734,-112,1531406803742,-137,1531406803750,-176,1531406803758,-198,1531406803766,-186,1531406803774,-183,1531406803782,-183,1531406803790,-161,1531406803798,-154,1531406803806,-166,1531406803814,-168,1531406803822,-161,1531406803830,-144,1531406803838,-134,1531406803846,-134,1531406803854,-129,1531406803862,-127,1531406803870,-139,1531406803878,-151,1531406803886,-134,1531406803894,-110,1531406803902,-120,1531406803910,-139,1531406803918,-127,1531406803926,-112,1531406803934,-115,1531406803942,-117,1531406803950,-122,1531406803958,-107,1531406803966,-100,1531406803974,-127,1531406803982,-127,1531406803990,-98,1531406803998,-117,1531406804006,-139,1531406804014,-107,1531406804022,-88,1531406804030,-112,1531406804038,-122,1531406804046,-105,1531406804054,-105,1531406804062,-117,1531406804070,-120,1531406804078,-117,1531406804086,-112,1531406804094,-103,1531406804102,-100,1531406804110,-103,1531406804118,-93,1531406804126,-78,1531406804134,-54,1531406804142,-29,1531406804150,-24,1531406804158,2,1531406804166,85,1531406804174,149,1531406804182,129,1531406804190,83,1531406804198,49,1531406804206,-7,1531406804214,-66,1531406804222,-95,1531406804230,-107,1531406804238,-127,1531406804246,-137,1531406804254,-117,1531406804262,-220,1531406804270,-425,1531406804278,27,1531406804286,1216,1531406804294,1643,1531406804302,801,1531406804310,-15,1531406804318,-173,1531406804326,-98,1531406804334,-15,1531406804342,17,1531406804350,-12,1531406804358,-10,1531406804366,7,1531406804374,20,1531406804382,51,1531406804390,88,1531406804398,144,1531406804406,225,1531406804414,303,1531406804422,376,1531406804430,454,1531406804438,525,1531406804446,598,1531406804454,671,1531406804462,718,1531406804470,718,1531406804478,681,1531406804486,591,1531406804494,447,1531406804502,303,1531406804510,181,1531406804518,78,1531406804526,10,1531406804534,-32,1531406804542,-78,1531406804550,-112,1531406804558,-137,1531406804566,-176,1531406804574,-198,1531406804582,-186,1531406804590,-183,1531406804598,-183,1531406804606,-161,1531406804614,-154,1531406804622,-166,1531406804630,-168,1531406804638,-161,1531406804646,-144,1531406804654,-134,1531406804662,-134,1531406804670,-129,1531406804678,-127,1531406804686,-139,1531406804694,-151,1531406804702,-134,1531406804710,-110,1531406804718,-120,1531406804726,-139,1531406804734,-127,1531406804742,-112,1531406804750,-115,1531406804758,-117,1531406804766,-122,1531406804774,-107,1531406804782,-100,1531406804790,-127,1531406804798,-127,1531406804806,-98,1531406804814,-117,1531406804822,-139,1531406804830,-107,1531406804838,-88,1531406804846,-112,1531406804854,-122,1531406804862,-105,1531406804870,-105,1531406804878,-117,1531406804886,-120,1531406804894,-117,1531406804902,-112,1531406804910,-103,1531406804918,-100,1531406804926,-103,1531406804934,-93,1531406804942,-78,1531406804950,-54,1531406804958,-29,1531406804966,-24,1531406804974,2,1531406804982,85
1531406804990,149,1531406804998,129,1531406805006,83,1531406805014,49,1531406805022,-7,1531406805030,-66,1531406805038,-95,1531406805046,-107,1531406805054,-127,1531406805062,-137,1531406805070,-117,1531406805078,-220,1531406805086,-425,1531406805094,27,1531406805102,1216,1531406805110,1643,1531406805118,801,1531406805126,-15,1531406805134,-173,1531406805142,-98,1531406805150,-15,1531406805158,17,1531406805166,-12,1531406805174,-10,1531406805182,7,1531406805190,20,1531406805198,51,1531406805206,88,1531406805214,144,1531406805222,225,1531406805230,303,1531406805238,376,1531406805246,454,1531406805254,525,1531406805262,598,1531406805270,671,1531406805278,718,1531406805286,718,1531406805294,681,1531406805302,591,1531406805310,447,1531406805318,303,1531406805326,181,1531406805334,78,1531406805342,10,1531406805350,-32,1531406805358,-78,1531406805366,-112,1531406805374,-137,1531406805382,-176,1531406805390,-198,1531406805398,-186,1531406805406,-183,1531406805414,-183,1531406805422,-161,1531406805430,-154,1531406805438,-166,1531406805446,-168,1531406805454,-161,1531406805462,-144,1531406805470,-134,1531406805478,-134,1531406805486,-129,1531406805494,-127,1531406805502,-139,1531406805510,-151,1531406805518,-134,1531406805526,-110,1531406805534,-120,1531406805542,-139,1531406805550,-127,1531406805558,-112,1531406805566,-115,1531406805574,-117,1531406805582,-122,1531406805590,-107,1531406805598,-100,1531406805606,-127,1531406805614,-127,1531406805622,-98,1531406805630,-117,1531406805638,-139,1531406805646,-107,1531406805654,-88,1531406805662,-112,1531406805670,-122,1531406805678,-105,1531406805686,-105,1531406805694,-117,1531406805702,-120,1531406805710,-117,1531406805718,-112,1531406805726,-103,1531406805734,-100,1531406805742,-103,1531406805750,-93,1531406805758,-78,1531406805766,-54,1531406805774,-29,1531406805782,-24,1531406805790,2,1531406805798,85,1531406805806,149,1531406805814,129,1531406805822,83,1531406805830,49,1531406805838,-7,1531406805846,-66,1531406805854,-95,1531406805862,-107,1531406805870,-127,1531406805878,-137,1531406805886,-117,1531406805894,-220,1531406805902,-425,1531406805910,27,1531406805918,1216,1531406805926,1643,1531406805934,801,1531406805942,-15,1531406805950,-173,1531406805958,-98,1531406805966,-15,1531406805974,17,1531406805982,-12,1531406805990,-10,1531406805998,7,1531406806006,20,1531406806014,51,1531406806022,88,1531406806030,144,1531406806038,225,1531406806046,303,1531406806054,376,1531406806062,454,1531406806070,525,1531406806078,598,1531406806086,671,1531406806094,718,1531406806102,718,1531406806110,681,1531406806118,591,1531406806126,447,1531406806134,303,1531406806142,181,1531406806150,78,1531406806158,10,1531406806166,-32,1531406806174,-78,1531406806182,-112,1531406806190,-137,1531406806198,-176,1531406806206,-198,1531406806214,-186,1531406806222,-183,1531406806230,-183,1531406806238,-161,1531406806246,-154,1531406806254,-166,1531406806262,-168,1531406806270,-161,1531406806278,-144,1531406806286,-134,1531406806294,-134,1531406806302,-129,1531406806310,-127,1531406806318,-139,1531406806326,-151,1531406806334,-134,1531406806342,-110,1531406806350,-120,1531406806358,-139,1531406806366,-127,1531406806374,-112,1531406806382,-115,1531406806390,-117,1531406806398,-122,1531406806406,-107,1531406806414,-100,1531406806422,-127,1531406806430,-127,1531406806438,-98,1531406806446,-117,1531406806454,-139,1531406806462,-107,1531406806470,-88,1531406806478,-112,1531406806486,-122,1531406806494,-105,1531406806502,-105,1531406806510,-117,1531406806518,-120,1531406806526,-117,1531406806534,-112,1531406806542,-103,1531406806550,-100,1531406806558,-103,1531406806566,-93,1531406806574,-78,1531406806582,-54,1531406806590,-29,1531406806598,-24,1531406806606,2,1531406806614,85,1531406806622,149,1531406806630,129,1531406806638,83,1531406806646,49,1531406806654,-7,1531406806662,-66,1531406806670,-95,1531406806678,-107,1531406806686,-127,1531406806694,-137,1531406806702,-117,1531406806710,-220,1531406806718,-425,1531406806726,27,1531406806734,1216,1531406806742,1643,1531406806750,801,1531406806758,-15,1531406806766,-173,1531406806774,-98,1531406806782,-15,1531406806790,17,1531406806798,-12,1531406806806,-10,1531406806814,7,1531406806822,20,1531406806830,51,1531406806838,88,1531406806846,144,1531406806854,225,1531406806862,303,1531406806870,376,1531406806878,454,1531406806886,525,1531406806894,598,1531406806902,671,1531406806910,718,1531406806918,718,1531406806926,681,1531406806934,591,1531406806942,447,1531406806950,303,1531406806958,181,1531406806966,78,1531406806974,10,1531406806982,-32,1531406806990,-78,1531406806998,-112,1531406807006,-137,1531406807014,-176,1531406807022,-198,1531406807030,-186,1531406807038,-183,1531406807046,-183,1531406807054,-161,1531406807062,-154,1531406807070,-166,1531406807078,-168,1531406807086,-161,1531406807094,-144,1531406807102,-134,1531406807110,-134,1531406807118,-129,1531406807126,-127,1531406807134,-139,1531406807142,-151,1531406807150,-134,1531406807158,-110,1531406807166,-120,1531406807174,-139,1531406807182,-127,1531406807190,-112,1531406807198,-115,1531406807206,-117,1531406807214,-122,1531406807222,-107,1531406807230,-100,1531406807238,-127,1531406807246,-127,1531406807254,-98,1531406807262,-117,1531406807270,-139,1531406807278,-107,1531406807286,-88,1531406807294,-112,1531406807302,-122,1531406807310,-105,1531406807318,-105,1531406807326,-117,1531406807334,-120,1531406807342,-117,1531406807350,-112,1531406807358,-103,1531406807366,-100,1531406807374,-103,1531406807382,-93,1531406807390,-78
1531406807398,-54,1531406807406,-29,1531406807414,-24,1531406807422,2,1531406807430,85,1531406807438,149,1531406807446,129,1531406807454,83,1531406807462,49,1531406807470,-7,1531406807478,-66,1531406807486,-95,1531406807494,-107,1531406807502,-127,1531406807510,-137,1531406807518,-117,1531406807526,-220,1531406807534,-425,1531406807542,27,1531406807550,1216,1531406807558,1643,1531406807566,801,1531406807574,-15,1531406807582,-173,1531406807590,-98,1531406807598,-15,1531406807606,17,1531406807614,-12,1531406807622,-10,1531406807630,7,1531406807638,20,1531406807646,51,1531406807654,88,1531406807662,144,1531406807670,225,1531406807678,303,1531406807686,376,1531406807694,454,1531406807702,525,1531406807710,598,1531406807718,671,1531406807726,718,1531406807734,718,1531406807742,681,1531406807750,591,1531406807758,447,1531406807766,303,1531406807774,181,1531406807782,78,1531406807790,10,1531406807798,-32,1531406807806,-78,1531406807814,-112,1531406807822,-137,1531406807830,-176,1531406807838,-198,1531406807846,-186,1531406807854,-183,1531406807862,-183,1531406807870,-161,1531406807878,-154,1531406807886,-166,1531406807894,-168,1531406807902,-161,1531406807910,-144,1531406807918,-134,1531406807926,-134,1531406807934,-129,1531406807942,-127,1531406807950,-139,1531406807958,-151,1531406807966,-134,1531406807974,-110,1531406807982,-120,1531406807990,-139,1531406807998,-127,1531406808006,-112,1531406808014,-115,1531406808022,-117,1531406808030,-122,1531406808038,-107,1531406808046,-100,1531406808054,-127,1531406808062,-127,1531406808070,-98,1531406808078,-117,1531406808086,-139,1531406808094,-107,1531406808102,-88,1531406808110,-112,1531406808118,-122,1531406808126,-105,1531406808134,-105,1531406808142,-117,1531406808150,-120,1531406808158,-117,1531406808166,-112,1531406808174,-103,1531406808182,-100,1531406808190,-103,1531406808198,-93,1531406808206,-78,1531406808214,-54,1531406808222,-29,1531406808230,-24,1531406808238,2,1531406808246,85,1531406808254,149,1531406808262,129,1531406808270,83,1531406808278,49,1531406808286,-7,1531406808294,-66,1531406808302,-95,1531406808310,-107,1531406808318,-127,1531406808326,-137,1531406808334,-117,1531406808342,-220,1531406808350,-425,1531406808358,27,1531406808366,1216,1531406808374,1643,1531406808382,801,1531406808390,-15,1531406808398,-173,1531406808406,-98,1531406808414,-15,1531406808422,17,1531406808430,-12,1531406808438,-10,1531406808446,7,1531406808454,20,1531406808462,51,1531406808470,88,1531406808478,144,1531406808486,225,1531406808494,303,1531406808502,376,1531406808510,454,1531406808518,525,1531406808526,598,1531406808534,671,1531406808542,718,1531406808550,718,1531406808558,681,1531406808566,591,1531406808574,447,1531406808582,303,1531406808590,181,1531406808598,78,1531406808606,10,1531406808614,-32,1531406808622,-78,1531406808630,-112,1531406808638,-137,1531406808646,-176,1531406808654,-198,1531406808662,-186,1531406808670,-183,1531406808678,-183,1531406808686,-161,1531406808694,-154,1531406808702,-166,1531406808710,-168,1531406808718,-161,1531406808726,-144,1531406808734,-134,1531406808742,-134,1531406808750,-129,1531406808758,-127,1531406808766,-139,1531406808774,-151,1531406808782,-134,1531406808790,-110,1531406808798,-120,1531406808806,-139,1531406808814,-127,1531406808822,-112,1531406808830,-115,1531406808838,-117,1531406808846,-122,1531406808854,-107,1531406808862,-100,1531406808870,-127,1531406808878,-127,1531406808886,-98,1531406808894,-117,1531406808902,-139,1531406808910,-107,1531406808918,-88,1531406808926,-112,1531406808934,-122,1531406808942,-105,1531406808950,-105,1531406808958,-117,1531406808966,-120,1531406808974,-117,1531406808982,-112,1531406808990,-103,1531406808998,-100,1531406809006,-103,1531406809014,-93,1531406809022,-78,1531406809030,-54,1531406809038,-29,1531406809046,-24,1531406809054,2,1531406809062,85,1531406809070,149,1531406809078,129,1531406809086,83,1531406809094,49,1531406809102,-7,1531406809110,-66,1531406809118,-95,1531406809126,-107,1531406809134,-127,1531406809142,-137,1531406809150,-117,1531406809158,-220,1531406809166,-425,1531406809174,27,1531406809182,1216,1531406809190,1643,1531406809198,801,1531406809206,-15,1531406809214,-173,1531406809222,-98,1531406809230,-15,1531406809238,17,1531406809246,-12,1531406809254,-10,1531406809262,7,1531406809270,20,1531406809278,51,1531406809286,88,1531406809294,144,1531406809302,225,1531406809310,303,1531406809318,376,1531406809326,454,1531406809334,525,1531406809342,598,1531406809350,671,1531406809358,718,1531406809366,718,1531406809374,681,1531406809382,591,1531406809390,447,1531406809398,303,1531406809406,181,1531406809414,78,1531406809422,10,1531406809430,-32,1531406809438,-78,1531406809446,-112,1531406809454,-137,1531406809462,-176,1531406809470,-198,1531406809478,-186,1531406809486,-183,1531406809494,-183,1531406809502,-161,1531406809510,-154,1531406809518,-166,1531406809526,-168,1531406809534,-161,1531406809542,-144,1531406809550,-134,1531406809558,-134,1531406809566,-129,1531406809574,-127,1531406809582,-139,1531406809590,-151,1531406809598,-134,1531406809606,-110,1531406809614,-120,1531406809622,-139,1531406809630,-127,1531406809638,-112,1531406809646,-115,1531406809654,-117,1531406809662,-122,1531406809670,-107,1531406809678,-100,1531406809686,-127,1531406809694,-127,1531406809702,-98,1531406809710,-117,1531406809718,-139,1531406809726,-107,1531406809734,-88,1531406809742,-112,1531406809750,-122,1531406809758,-105,1531406809766,-105,1531406809774,-117,1531406809782,-120,1531406809790,-117,1531406809798,-112
1531406809806,-103,1531406809814,-100,1531406809822,-103,1531406809830,-93,1531406809838,-78,1531406809846,-54,1531406809854,-29,1531406809862,-24,1531406809870,2,1531406809878,85,1531406809886,149,1531406809894,129,1531406809902,83,1531406809910,49,1531406809918,-7,1531406809926,-66,1531406809934,-95,1531406809942,-107,1531406809950,-127,1531406809958,-137,1531406809966,-117,1531406809974,-220,1531406809982,-425,1531406809990,27,1531406809998,1216,1531406810006,1643,1531406810014,801,1531406810022,-15,1531406810030,-173,1531406810038,-98,1531406810046,-15,1531406810054,17,1531406810062,-12,1531406810070,-10,1531406810078,7,1531406810086,20,1531406810094,51,1531406810102,88,1531406810110,144,1531406810118,225,1531406810126,303,1531406810134,376,1531406810142,454,1531406810150,525,1531406810158,598,1531406810166,671,1531406810174,718,1531406810182,718,1531406810190,681,1531406810198,591,1531406810206,447,1531406810214,303,1531406810222,181,1531406810230,78,1531406810238,10,1531406810246,-32,1531406810254,-78,1531406810262,-112,1531406810270,-137,1531406810278,-176,1531406810286,-198,1531406810294,-186,1531406810302,-183,1531406810310,-183,1531406810318,-161,1531406810326,-154,1531406810334,-166,1531406810342,-168,1531406810350,-161,1531406810358,-144,1531406810366,-134,1531406810374,-134,1531406810382,-129,1531406810390,-127,1531406810398,-139,1531406810406,-151,1531406810414,-134,1531406810422,-110,1531406810430,-120,1531406810438,-139,1531406810446,-127,1531406810454,-112,1531406810462,-115,1531406810470,-117,1531406810478,-122,1531406810486,-107,1531406810494,-100,1531406810502,-127,1531406810510,-127,1531406810518,-98,1531406810526,-117,1531406810534,-139,1531406810542,-107,1531406810550,-88,1531406810558,-112,1531406810566,-122,1531406810574,-105,1531406810582,-105,1531406810590,-117,1531406810598,-120,1531406810606,-117,1531406810614,-112,1531406810622,-103,1531406810630,-100,1531406810638,-103,1531406810646,-93,1531406810654,-78,1531406810662,-54,1531406810670,-29,1531406810678,-24,1531406810686,2,1531406810694,85,1531406810702,149,1531406810710,129,1531406810718,83,1531406810726,49,1531406810734,-7,1531406810742,-66,1531406810750,-95,1531406810758,-107,1531406810766,-127,1531406810774,-137,1531406810782,-117,1531406810790,-220,1531406810798,-425,1531406810806,27,1531406810814,1216,1531406810822,1643,1531406810830,801,1531406810838,-15,1531406810846,-173,1531406810854,-98,1531406810862,-15,1531406810870,17,1531406810878,-12,1531406810886,-10,1531406810894,7,1531406810902,20,1531406810910,51,1531406810918,88,1531406810926,144,1531406810934,225,1531406810942,303,1531406810950,376,1531406810958,454,1531406810966,525,1531406810974,598,1531406810982,671,1531406810990,718,1531406810998,718,1531406811006,681,1531406811014,591,1531406811022,447,1531406811030,303,1531406811038,181,1531406811046,78,1531406811054,10,1531406811062,-32,1531406811070,-78,1531406811078,-112,1531406811086,-137,1531406811094,-176,1531406811102,-198,1531406811110,-186,1531406811118,-183,1531406811126,-183,1531406811134,-161,1531406811142,-154,1531406811150,-166,1531406811158,-168,1531406811166,-161,1531406811174,-144,1531406811182,-134,1531406811190,-134,1531406811198,-129,1531406811206,-127,1531406811214,-139,1531406811222,-151,1531406811230,-134,1531406811238,-110,1531406811246,-120,1531406811254,-139,1531406811262,-127,1531406811270,-112,1531406811278,-115,1531406811286,-117,1531406811294,-122,1531406811302,-107,1531406811310,-100,1531406811318,-127,1531406811326,-127,1531406811334,-98,1531406811342,-117,1531406811350,-139,1531406811358,-107,1531406811366,-88,1531406811374,-112,1531406811382,-122,1531406811390,-105,1531406811398,-105,1531406811406,-117,1531406811414,-120,1531406811422,-117,1531406811430,-112,1531406811438,-103,1531406811446,-100,1531406811454,-103,1531406811462,-93,1531406811470,-78,1531406811478,-54,1531406811486,-29,1531406811494,-24,1531406811502,2,1531406811510,85,1531406811518,149,1531406811526,129,1531406811534,83,1531406811542,49,1531406811550,-7,1531406811558,-66,1531406811566,-95,1531406811574,-107,1531406811582,-127,1531406811590,-137,1531406811598,-117,1531406811606,-220,1531406811614,-425,1531406811622,27,1531406811630,1216,1531406811638,1643,1531406811646,801,1531406811654,-15,1531406811662,-173,1531406811670,-98,1531406811678,-15,1531406811686,17,1531406811694,-12,1531406811702,-10,1531406811710,7,1531406811718,20,1531406811726,51,1531406811734,88,1531406811742,144,1531406811750,225,1531406811758,303,1531406811766,376,1531406811774,454,1531406811782,525,1531406811790,598,1531406811798,671,1531406811806,718,1531406811814,718,1531406811822,681,1531406811830,591,1531406811838,447,1531406811846,303,1531406811854,181,1531406811862,78,1531406811870,10,1531406811878,-32,1531406811886,-78,1531406811894,-112,1531406811902,-137,1531406811910,-176,1531406811918,-198,1531406811926,-186,1531406811934,-183,1531406811942,-183,1531406811950,-161,1531406811958,-154,1531406811966,-166,1531406811974,-168,1531406811982,-161,1531406811990,-144,1531406811998,-134,1531406812006,-134,1531406812014,-129,1531406812022,-127,1531406812030,-139,1531406812038,-151,1531406812046,-134,1531406812054,-110,1531406812062,-120,1531406812070,-139,1531406812078,-127,1531406812086,-112,1531406812094,-115,1531406812102,-117,1531406812110,-122,1531406812118,-107,1531406812126,-100,1531406812134,-127,1531406812142,-127,1531406812150,-98,1531406812158,-117,1531406812166,-139,1531406812174,-107,1531406812182,-88,1531406812190,-112,1531406812198,-122,1531406812206,-105
1531406812214,-105,1531406812222,-117,1531406812230,-120,1531406812238,-117,1531406812246,-112,1531406812254,-103,1531406812262,-100,1531406812270,-103,1531406812278,-93,1531406812286,-78,1531406812294,-54,1531406812302,-29,1531406812310,-24,1531406812318,2,1531406812326,85,1531406812334,149,1531406812342,129,1531406812350,83,1531406812358,49,1531406812366,-7,1531406812374,-66,1531406812382,-95,1531406812390,-107,1531406812398,-127,1531406812406,-137,1531406812414,-117,1531406812422,-220,1531406812430,-425,1531406812438,27,1531406812446,1216,1531406812454,1643,1531406812462,801,1531406812470,-15,1531406812478,-173,1531406812486,-98,1531406812494,-15,1531406812502,17,1531406812510,-12,1531406812518,-10,1531406812526,7,1531406812534,20,1531406812542,51,1531406812550,88,1531406812558,144,1531406812566,225,1531406812574,303,1531406812582,376,1531406812590,454,1531406812598,525,1531406812606,598,1531406812614,671,1531406812622,718,1531406812630,718,1531406812638,681,1531406812646,591,1531406812654,447,1531406812662,303,1531406812670,181,1531406812678,78,1531406812686,10,1531406812694,-32,1531406812702,-78,1531406812710,-112,1531406812718,-137,1531406812726,-176,1531406812734,-198,1531406812742,-186,1531406812750,-183,1531406812758,-183,1531406812766,-161,1531406812774,-154,1531406812782,-166,1531406812790,-168,1531406812798,-161,1531406812806,-144,1531406812814,-134,1531406812822,-134,1531406812830,-129,1531406812838,-127,1531406812846,-139,1531406812854,-151,1531406812862,-134,1531406812870,-110,1531406812878,-120,1531406812886,-139,1531406812894,-127,1531406812902,-112,1531406812910,-115,1531406812918,-117,1531406812926,-122,1531406812934,-107,1531406812942,-100,1531406812950,-127,1531406812958,-127,1531406812966,-98,1531406812974,-117,1531406812982,-139,1531406812990,-107,1531406812998,-88,1531406813006,-112,1531406813014,-122,1531406813022,-105,1531406813030,-105,1531406813038,-117,1531406813046,-120,1531406813054,-117,1531406813062,-112,1531406813070,-103,1531406813078,-100,1531406813086,-103,1531406813094,-93,1531406813102,-78,1531406813110,-54,1531406813118,-29,1531406813126,-24,1531406813134,2,1531406813142,85,1531406813150,149,1531406813158,129,1531406813166,83,1531406813174,49,1531406813182,-7,1531406813190,-66,1531406813198,-95,1531406813206,-107,1531406813214,-127,1531406813222,-137,1531406813230,-117,1531406813238,-220,1531406813246,-425,1531406813254,27,1531406813262,1216,1531406813270,1643,1531406813278,801,1531406813286,-15,1531406813294,-173,1531406813302,-98,1531406813310,-15,1531406813318,17,1531406813326,-12,1531406813334,-10,1531406813342,7,1531406813350,20,1531406813358,51,1531406813366,88,1531406813374,144,1531406813382,225,1531406813390,303,1531406813398,376,1531406813406,454,1531406813414,525,1531406813422,598,1531406813430,671,1531406813438,718,1531406813446,718,1531406813454,681,1531406813462,591,1531406813470,447,1531406813478,303,1531406813486,181,1531406813494,78,1531406813502,10,1531406813510,-32,1531406813518,-78,1531406813526,-112,1531406813534,-137,1531406813542,-176,1531406813550,-198,1531406813558,-186,1531406813566,-183,1531406813574,-183,1531406813582,-161,1531406813590,-154,1531406813598,-166,1531406813606,-168,1531406813614,-161,1531406813622,-144,1531406813630,-134,1531406813638,-134,1531406813646,-129,1531406813654,-127,1531406813662,-139,1531406813670,-151,1531406813678,-134,1531406813686,-110,1531406813694,-120,1531406813702,-139,1531406813710,-127,1531406813718,-112,1531406813726,-115,1531406813734,-117,1531406813742,-122,1531406813750,-107,1531406813758,-100,1531406813766,-127,1531406813774,-127,1531406813782,-98,1531406813790,-117,1531406813798,-139,1531406813806,-107,1531406813814,-88,1531406813822,-112,1531406813830,-122,1531406813838,-105,1531406813846,-105,1531406813854,-117,1531406813862,-120,1531406813870,-117,1531406813878,-112,1531406813886,-103,1531406813894,-100,1531406813902,-103,1531406813910,-93,1531406813918,-78,1531406813926,-54,1531406813934,-29,1531406813942,-24,1531406813950,2,1531406813958,85,1531406813966,149,1531406813974,129,1531406813982,83,1531406813990,49,1531406813998,-7,1531406814006,-66,1531406814014,-95,1531406814022,-107,1531406814030,-127,1531406814038,-137,1531406814046,-117,1531406814054,-220,1531406814062,-425,1531406814070,27,1531406814078,1216,1531406814086,1643,1531406814094,801,1531406814102,-15,1531406814110,-173,1531406814118,-98,1531406814126,-15,1531406814134,17,1531406814142,-12,1531406814150,-10,1531406814158,7,1531406814166,20,1531406814174,51,1531406814182,88,1531406814190,144,1531406814198,225,1531406814206,303,1531406814214,376,1531406814222,454,1531406814230,525,1531406814238,598,1531406814246,671,1531406814254,718,1531406814262,718,1531406814270,681,1531406814278,591,1531406814286,447,1531406814294,303,1531406814302,181,1531406814310,78,1531406814318,10,1531406814326,-32,1531406814334,-78,1531406814342,-112,1531406814350,-137,1531406814358,-176,1531406814366,-198,1531406814374,-186,1531406814382,-183,1531406814390,-183,1531406814398,-161,1531406814406,-154,1531406814414,-166,1531406814422,-168,1531406814430,-161,1531406814438,-144,1531406814446,-134,1531406814454,-134,1531406814462,-129,1531406814470,-127,1531406814478,-139,1531406814486,-151,1531406814494,-134,1531406814502,-110,1531406814510,-120,1531406814518,-139,1531406814526,-127,1531406814534,-112,1531406814542,-115,1531406814550,-117,1531406814558,-122,1531406814566,-107,1531406814574,-100,1531406814582,-127,1531406814590,-127,1531406814598,-98,1531406814606,-117,1531406814614,-139
1531406814622,-107,1531406814630,-88,1531406814638,-112,1531406814646,-122,1531406814654,-105,1531406814662,-105,1531406814670,-117,1531406814678,-120,1531406814686,-117,1531406814694,-112,1531406814702,-103,1531406814710,-100,1531406814718,-103,1531406814726,-93,1531406814734,-78,1531406814742,-54,1531406814750,-29,1531406814758,-24,1531406814766,2,1531406814774,85,1531406814782,149,1531406814790,129,1531406814798,83,1531406814806,49,1531406814814,-7,1531406814822,-66,1531406814830,-95,1531406814838,-107,1531406814846,-127,1531406814854,-137,1531406814862,-117,1531406814870,-220,1531406814878,-425,1531406814886,27,1531406814894,1216,1531406814902,1643,1531406814910,801,1531406814918,-15,1531406814926,-173,1531406814934,-98,1531406814942,-15,1531406814950,17,1531406814958,-12,1531406814966,-10,1531406814974,7,1531406814982,20,1531406814990,51,1531406814998,88,1531406815006,144,1531406815014,225,1531406815022,303,1531406815030,376,1531406815038,454,1531406815046,525,1531406815054,598,1531406815062,671,1531406815070,718,1531406815078,718,1531406815086,681,1531406815094,591,1531406815102,447,1531406815110,303,1531406815118,181,1531406815126,78,1531406815134,10,1531406815142,-32,1531406815150,-78,1531406815158,-112,1531406815166,-137,1531406815174,-176,1531406815182,-198,1531406815190,-186,1531406815198,-183,1531406815206,-183,1531406815214,-161,1531406815222,-154,1531406815230,-166,1531406815238,-168,1531406815246,-161,1531406815254,-144,1531406815262,-134,1531406815270,-134,1531406815278,-129,1531406815286,-127,1531406815294,-139,1531406815302,-151,1531406815310,-134,1531406815318,-110,1531406815326,-120,1531406815334,-139,1531406815342,-127,1531406815350,-112,1531406815358,-115,1531406815366,-117,1531406815374,-122,1531406815382,-107,1531406815390,-100,1531406815398,-127,1531406815406,-127,1531406815414,-98,1531406815422,-117,1531406815430,-139,1531406815438,-107,1531406815446,-88,1531406815454,-112,1531406815462,-122,1531406815470,-105,1531406815478,-105,1531406815486,-117,1531406815494,-120,1531406815502,-117,1531406815510,-112,1531406815518,-103,1531406815526,-100,1531406815534,-103,1531406815542,-93,1531406815550,-78,1531406815558,-54,1531406815566,-29,1531406815574,-24,1531406815582,2,1531406815590,85,1531406815598,149,1531406815606,129,1531406815614,83,1531406815622,49,1531406815630,-7,1531406815638,-66,1531406815646,-95,1531406815654,-107,1531406815662,-127,1531406815670,-137,1531406815678,-117,1531406815686,-220,1531406815694,-425,1531406815702,27,1531406815710,1216,1531406815718,1643,1531406815726,801,1531406815734,-15,1531406815742,-173,1531406815750,-98,1531406815758,-15,1531406815766,17,1531406815774,-12,1531406815782,-10,1531406815790,7,1531406815798,20,1531406815806,51,1531406815814,88,1531406815822,144,1531406815830,225,1531406815838,303,1531406815846,376,1531406815854,454,1531406815862,525,1531406815870,598,1531406815878,671,1531406815886,718,1531406815894,718,1531406815902,681,1531406815910,591,1531406815918,447,1531406815926,303,1531406815934,181,1531406815942,78,1531406815950,10,1531406815958,-32,1531406815966,-78,1531406815974,-112,1531406815982,-137,1531406815990,-176,1531406815998,-198,1531406816006,-186,1531406816014,-183,1531406816022,-183,1531406816030,-161,1531406816038,-154,1531406816046,-166,1531406816054,-168,1531406816062,-161,1531406816070,-144,1531406816078,-134,1531406816086,-134,1531406816094,-129,1531406816102,-127,1531406816110,-139,1531406816118,-151,1531406816126,-134,1531406816134,-110,1531406816142,-120,1531406816150,-139,1531406816158,-127,1531406816166,-112,1531406816174,-115,1531406816182,-117,1531406816190,-122,1531406816198,-107,1531406816206,-100,1531406816214,-127,1531406816222,-127,1531406816230,-98,1531406816238,-117,1531406816246,-139,1531406816254,-107,1531406816262,-88,1531406816270,-112,1531406816278,-122,1531406816286,-105,1531406816294,-105,1531406816302,-117,1531406816310,-120,1531406816318,-117,1531406816326,-112,1531406816334,-103,1531406816342,-100,1531406816350,-103,1531406816358,-93,1531406816366,-78,1531406816374,-54,1531406816382,-29,1531406816390,-24,1531406816398,2,1531406816406,85,1531406816414,149,1531406816422,129,1531406816430,83,1531406816438,49,1531406816446,-7,1531406816454,-66,1531406816462,-95,1531406816470,-107,1531406816478,-127,1531406816486,-137,1531406816494,-117,1531406816502,-220,1531406816510,-425,1531406816518,27,1531406816526,1216,1531406816534,1643,1531406816542,801,1531406816550,-15,1531406816558,-173,1531406816566,-98,1531406816574,-15,1531406816582,17,1531406816590,-12,1531406816598,-10,1531406816606,7,1531406816614,20,1531406816622,51,1531406816630,88,1531406816638,144,1531406816646,225,1531406816654,303,1531406816662,376,1531406816670,454,1531406816678,525,1531406816686,598,1531406816694,671,1531406816702,718,1531406816710,718,1531406816718,681,1531406816726,591,1531406816734,447,1531406816742,303,1531406816750,181,1531406816758,78,1531406816766,10,1531406816774,-32,1531406816782,-78,1531406816790,-112,1531406816798,-137,1531406816806,-176,1531406816814,-198,1531406816822,-186,1531406816830,-183,1531406816838,-183,1531406816846,-161,1531406816854,-154,1531406816862,-166,1531406816870,-168,1531406816878,-161,1531406816886,-144,1531406816894,-134,1531406816902,-134,1531406816910,-129,1531406816918,-127,1531406816926,-139,1531406816934,-151,1531406816942,-134,1531406816950,-110,1531406816958,-120,1531406816966,-139,1531406816974,-127,1531406816982,-112,1531406816990,-115,1531406816998,-117,1531406817006,-122,1531406817014,-107,1531406817022,-100
1531406817030,-127,1531406817038,-127,1531406817046,-98,1531406817054,-117,1531406817062,-139,1531406817070,-107,1531406817078,-88,1531406817086,-112,1531406817094,-122,1531406817102,-105,1531406817110,-105,1531406817118,-117,1531406817126,-120,1531406817134,-117,1531406817142,-112,1531406817150,-103,1531406817158,-100,1531406817166,-103,1531406817174,-93,1531406817182,-78,1531406817190,-54,1531406817198,-29,1531406817206,-24,1531406817214,2,1531406817222,85,1531406817230,149,1531406817238,129,1531406817246,83,1531406817254,49,1531406817262,-7,1531406817270,-66,1531406817278,-95,1531406817286,-107,1531406817294,-127,1531406817302,-137,1531406817310,-117,1531406817318,-220,1531406817326,-425,1531406817334,27,1531406817342,1216,1531406817350,1643,1531406817358,801,1531406817366,-15,1531406817374,-173,1531406817382,-98,1531406817390,-15,1531406817398,17,1531406817406,-12,1531406817414,-10,1531406817422,7,1531406817430,20,1531406817438,51,1531406817446,88,1531406817454,144,1531406817462,225,1531406817470,303,1531406817478,376,1531406817486,454,1531406817494,525,1531406817502,598,1531406817510,671,1531406817518,718,1531406817526,718,1531406817534,681,1531406817542,591,1531406817550,447,1531406817558,303,1531406817566,181,1531406817574,78,1531406817582,10,1531406817590,-32,1531406817598,-78,1531406817606,-112,1531406817614,-137,1531406817622,-176,1531406817630,-198,1531406817638,-186,1531406817646,-183,1531406817654,-183,1531406817662,-161,1531406817670,-154,1531406817678,-166,1531406817686,-168,1531406817694,-161,1531406817702,-144,1531406817710,-134,1531406817718,-134,1531406817726,-129,1531406817734,-127,1531406817742,-139,1531406817750,-151,1531406817758,-134,1531406817766,-112,1531406817774,-120,1531406817782,-137,1531406817790,-134,1531406817798,-110,1531406817806,-105,1531406817814,-122,1531406817822,-127,1531406817830,-117,1531406817838,-110,1531406817846,-105,1531406817854,-105,1531406817862,-100,1531406817870,-93,1531406817878,-95,1531406817886,-88,1531406817894,-78,1531406817902,-39,1531406817910,46,1531406817918,132,1531406817926,98,1531406817934,-68,1531406817942,-95,1531406817950,-83,1531406817958,-310,1531406817966,15,1531406817974,1201,1531406817982,1660,1531406817990,793,1531406817998,-17,1531406818006,-168,1531406818014,-100,1531406818022,-15,1531406818030,17,1531406818038,-12,1531406818046,-10,1531406818054,7,1531406818062,20,1531406818070,51,1531406818078,88,1531406818086,144,1531406818094,225,1531406818102,303,1531406818110,376,1531406818118,454,1531406818126,525,1531406818134,598,1531406818142,671,1531406818150,718,1531406818158,720,1531406818166,679,1531406818174,591,1531406818182,449,1531406818190,300,1531406818198,183,1531406818206,78,1531406818214,-22,1531406818222,-105,1531406818230,-168,1531406818238,-183,1531406818246,-161,1531406818254,-154,1531406818262,-164,1531406818270,-154,1531406818278,-137,1531406818286,-142,1531406818294,-151,1531406818302,-137,1531406818310,-132,1531406818318,-134,1531406818326,-112,1531406818334,-105,1531406818342,-122,1531406818350,-127,1531406818358,-117,1531406818366,-112,1531406818374,-105,1531406818382,-105,1531406818390,-100,1531406818398,-93,1531406818406,-95,1531406818414,-88,1531406818422,-78,1531406818430,-39,1531406818438,46,1531406818446,132,1531406818454,98,1531406818462,-68,1531406818470,-95,1531406818478,-83,1531406818486,-310,1531406818494,15,1531406818502,1201,1531406818510,1660,1531406818518,793,1531406818526,-17,1531406818534,-168,1531406818542,-100,1531406818550,-15,1531406818558,17,1531406818566,-12,1531406818574,-10,1531406818582,7,1531406818590,20,1531406818598,51,1531406818606,88,1531406818614,144,1531406818622,225,1531406818630,303,1531406818638,376,1531406818646,454,1531406818654,525,1531406818662,598,1531406818670,671,1531406818678,718,1531406818686,720,1531406818694,679,1531406818702,591,1531406818710,449,1531406818718,300,1531406818726,183,1531406818734,78,1531406818742,-22,1531406818750,-105,1531406818758,-168,1531406818766,-183,1531406818774,-161,1531406818782,-154,1531406818790,-164,1531406818798,-154,1531406818806,-137,1531406818814,-142,1531406818822,-151,1531406818830,-137,1531406818838,-132,1531406818846,-134,1531406818854,-112,1531406818862,-105,1531406818870,-122,1531406818878,-127,1531406818886,-117,1531406818894,-112,1531406818902,-105,1531406818910,-105,1531406818918,-100,1531406818926,-93,1531406818934,-95,1531406818942,-88,1531406818950,-78,1531406818958,-39,1531406818966,46,1531406818974,132,1531406818982,98,1531406818990,-68,1531406818998,-95,1531406819006,-83,1531406819014,-310,1531406819022,15,1531406819030,1201,1531406819038,1660,1531406819046,793,1531406819054,-17,1531406819062,-168,1531406819070,-100,1531406819078,-15,1531406819086,17,1531406819094,-12,1531406819102,-10,1531406819110,7,1531406819118,20,1531406819126,51,1531406819134,88,1531406819142,144,1531406819150,225,1531406819158,303,1531406819166,376,1531406819174,454,1531406819182,525,1531406819190,598,1531406819198,671,1531406819206,718,1531406819214,720,1531406819222,679,1531406819230,591,1531406819238,449,1531406819246,300,1531406819254,183,1531406819262,78,1531406819270,-22,1531406819278,-105,1531406819286,-168,1531406819294,-183,1531406819302,-161,1531406819310,-154,1531406819318,-164,1531406819326,-154,1531406819334,-137,1531406819342,-142,1531406819350,-151,1531406819358,-137,1531406819366,-132,1531406819374,-134,1531406819382,-112,1531406819390,-105,1531406819398,-122,1531406819406,-127,1531406819414,-117,1531406819422,-112,1531406819430,-105
1531406819438,-105,1531406819446,-100,1531406819454,-93,1531406819462,-95,1531406819470,-88,1531406819478,-78,1531406819486,-39,1531406819494,46,1531406819502,132,1531406819510,98,1531406819518,-68,1531406819526,-95,1531406819534,-83,1531406819542,-310,1531406819550,15,1531406819558,1201,1531406819566,1660,1531406819574,793,1531406819582,-17,1531406819590,-168,1531406819598,-100,1531406819606,-15,1531406819614,17,1531406819622,-12,1531406819630,-10,1531406819638,7,1531406819646,20,1531406819654,51,1531406819662,88,1531406819670,144,1531406819678,225,1531406819686,303,1531406819694,376,1531406819702,454,1531406819710,525,1531406819718,598,1531406819726,671,1531406819734,718,1531406819742,720,1531406819750,679,1531406819758,591,1531406819766,449,1531406819774,300,1531406819782,183,1531406819790,78,1531406819798,-22,1531406819806,-105,1531406819814,-168,1531406819822,-183,1531406819830,-161,1531406819838,-154,1531406819846,-164,1531406819854,-154,1531406819862,-137,1531406819870,-142,1531406819878,-151,1531406819886,-137,1531406819894,-132,1531406819902,-134,1531406819910,-112,1531406819918,-105,1531406819926,-122,1531406819934,-127,1531406819942,-117,1531406819950,-112,1531406819958,-105,1531406819966,-105,1531406819974,-100,1531406819982,-93,1531406819990,-95,1531406819998,-88,1531406820006,-78,1531406820014,-39,1531406820022,46,1531406820030,132,1531406820038,98,1531406820046,-68,1531406820054,-95,1531406820062,-83,1531406820070,-310,1531406820078,15,1531406820086,1201,1531406820094,1660,1531406820102,793,1531406820110,-17,1531406820118,-168,1531406820126,-100,1531406820134,-15,1531406820142,17,1531406820150,-12,1531406820158,-10,1531406820166,7,1531406820174,20,1531406820182,51,1531406820190,88,1531406820198,144,1531406820206,225,1531406820214,303,1531406820222,376,1531406820230,454,1531406820238,525,1531406820246,598,1531406820254,671,1531406820262,718,1531406820270,720,1531406820278,679,1531406820286,591,1531406820294,449,1531406820302,300,1531406820310,183,1531406820318,78,1531406820326,-22,1531406820334,-105,1531406820342,-168,1531406820350,-183,1531406820358,-161,1531406820366,-154,1531406820374,-164,1531406820382,-154,1531406820390,-137,1531406820398,-142,1531406820406,-151,1531406820414,-137,1531406820422,-132,1531406820430,-134,1531406820438,-112,1531406820446,-105,1531406820454,-122,1531406820462,-127,1531406820470,-117,1531406820478,-112,1531406820486,-105,1531406820494,-105,1531406820502,-100,1531406820510,-93,1531406820518,-95,1531406820526,-88,1531406820534,-78,1531406820542,-39,1531406820550,46,1531406820558,132,1531406820566,98,1531406820574,-68,1531406820582,-95,1531406820590,-83,1531406820598,-310,1531406820606,15,1531406820614,1201,1531406820622,1660,1531406820630,793,1531406820638,-17,1531406820646,-168,1531406820654,-100,1531406820662,-15,1531406820670,17,1531406820678,-12,1531406820686,-10,1531406820694,7,1531406820702,20,1531406820710,51,1531406820718,88,1531406820726,144,1531406820734,225,1531406820742,303,1531406820750,376,1531406820758,454,1531406820766,525,1531406820774,598,1531406820782,671,1531406820790,718,1531406820798,720,1531406820806,679,1531406820814,591,1531406820822,449,1531406820830,300,1531406820838,183,1531406820846,78,1531406820854,-22,1531406820862,-105,1531406820870,-168,1531406820878,-183,1531406820886,-161,1531406820894,-154,1531406820902,-164,1531406820910,-154,1531406820918,-137,1531406820926,-142,1531406820934,-151,1531406820942,-137,1531406820950,-132,1531406820958,-134,1531406820966,-112,1531406820974,-105,1531406820982,-122,1531406820990,-127,1531406820998,-117,1531406821006,-112,1531406821014,-105,1531406821022,-105,1531406821030,-100,1531406821038,-93,1531406821046,-95,1531406821054,-88,1531406821062,-78,1531406821070,-39,1531406821078,46,1531406821086,132,1531406821094,98,1531406821102,-68,1531406821110,-95,1531406821118,-83,1531406821126,-310,1531406821134,15,1531406821142,1201,1531406821150,1660,1531406821158,793,1531406821166,-17,1531406821174,-168,1531406821182,-100,1531406821190,-15,1531406821198,17,1531406821206,-12,1531406821214,-10,1531406821222,7,1531406821230,20,1531406821238,51,1531406821246,88,1531406821254,144,1531406821262,225,1531406821270,303,1531406821278,376,1531406821286,454,1531406821294,525,1531406821302,598,1531406821310,671,1531406821318,718,1531406821326,720,1531406821334,679,1531406821342,591,1531406821350,449,1531406821358,300,1531406821366,183,1531406821374,78,1531406821382,-22,1531406821390,-105,1531406821398,-168,1531406821406,-183,1531406821414,-161,1531406821422,-154,1531406821430,-164,1531406821438,-154,1531406821446,-137,1531406821454,-142,1531406821462,-151,1531406821470,-137,1531406821478,-132,1531406821486,-134,1531406821494,-112,1531406821502,-105,1531406821510,-122,1531406821518,-127,1531406821526,-117,1531406821534,-112,1531406821542,-105,1531406821550,-105,1531406821558,-100,1531406821566,-93,1531406821574,-95,1531406821582,-88,1531406821590,-78,1531406821598,-39,1531406821606,46,1531406821614,132,1531406821622,98,1531406821630,-68,1531406821638,-95,1531406821646,-83,1531406821654,-310,1531406821662,15,1531406821670,1201,1531406821678,1660,1531406821686,793,1531406821694,-17,1531406821702,-168,1531406821710,-100,1531406821718,-15,1531406821726,17,1531406821734,-12,1531406821742,-10,1531406821750,7,1531406821758,20,1531406821766,51,1531406821774,88,1531406821782,144,1531406821790,225,1531406821798,303,1531406821806,376,1531406821814,454,1531406821822,525,1531406821830,598,1531406821838,671
1531406821846,718,1531406821854,720,1531406821862,679,1531406821870,591,1531406821878,449,1531406821886,300,1531406821894,183,1531406821902,78,1531406821910,-22,1531406821918,-105,1531406821926,-168,1531406821934,-183,1531406821942,-161,1531406821950,-154,1531406821958,-164,1531406821966,-154,1531406821974,-137,1531406821982,-142,1531406821990,-151,1531406821998,-137,1531406822006,-132,1531406822014,-134,1531406822022,-112,1531406822030,-105,1531406822038,-122,1531406822046,-127,1531406822054,-117,1531406822062,-112,1531406822070,-105,1531406822078,-105,1531406822086,-100,1531406822094,-93,1531406822102,-95,1531406822110,-88,1531406822118,-78,1531406822126,-39,1531406822134,46,1531406822142,132,1531406822150,98,1531406822158,-68,1531406822166,-95,1531406822174,-83,1531406822182,-310,1531406822190,15,1531406822198,1201,1531406822206,1660,1531406822214,793,1531406822222,-17,1531406822230,-168,1531406822238,-100,1531406822246,-15,1531406822254,17,1531406822262,-12,1531406822270,-10,1531406822278,7,1531406822286,20,1531406822294,51,1531406822302,88,1531406822310,144,1531406822318,225,1531406822326,303,1531406822334,376,1531406822342,454,1531406822350,525,1531406822358,598,1531406822366,671,1531406822374,718,1531406822382,720,1531406822390,679,1531406822398,591,1531406822406,449,1531406822414,300,1531406822422,183,1531406822430,78,1531406822438,-22,1531406822446,-105,1531406822454,-168,1531406822462,-183,1531406822470,-161,1531406822478,-154,1531406822486,-164,1531406822494,-154,1531406822502,-137,1531406822510,-142,1531406822518,-151,1531406822526,-137,1531406822534,-132,1531406822542,-134,1531406822550,-112,1531406822558,-105,1531406822566,-122,1531406822574,-127,1531406822582,-117,1531406822590,-112,1531406822598,-105,1531406822606,-105,1531406822614,-100,1531406822622,-93,1531406822630,-95,1531406822638,-88,1531406822646,-78,1531406822654,-39,1531406822662,46,1531406822670,132,1531406822678,98,1531406822686,-68,1531406822694,-95,1531406822702,-83,1531406822710,-310,1531406822718,15,1531406822726,1201,1531406822734,1660,1531406822742,793,1531406822750,-17,1531406822758,-168,1531406822766,-100,1531406822774,-15,1531406822782,17,1531406822790,-12,1531406822798,-10,1531406822806,7,1531406822814,20,1531406822822,51,1531406822830,88,1531406822838,144,1531406822846,225,1531406822854,303,1531406822862,376,1531406822870,454,1531406822878,525,1531406822886,598,1531406822894,671,1531406822902,718,1531406822910,720,1531406822918,679,1531406822926,591,1531406822934,449,1531406822942,300,1531406822950,183,1531406822958,78,1531406822966,-22,1531406822974,-105,1531406822982,-168,1531406822990,-183,1531406822998,-161,1531406823006,-154,1531406823014,-164,1531406823022,-154,1531406823030,-137,1531406823038,-142,1531406823046,-151,1531406823054,-137,1531406823062,-132,1531406823070,-134,1531406823078,-112,1531406823086,-105,1531406823094,-122,1531406823102,-127,1531406823110,-117,1531406823118,-112,1531406823126,-105,1531406823134,-105,1531406823142,-100,1531406823150,-93,1531406823158,-95,1531406823166,-88,1531406823174,-78,1531406823182,-39,1531406823190,46,1531406823198,132,1531406823206,98,1531406823214,-68,1531406823222,-95,1531406823230,-83,1531406823238,-310,1531406823246,15,1531406823254,1201,1531406823262,1660,1531406823270,793,1531406823278,-17,1531406823286,-168,1531406823294,-100,1531406823302,-15,1531406823310,17,1531406823318,-12,1531406823326,-10,1531406823334,7,1531406823342,20,1531406823350,51,1531406823358,88,1531406823366,144,1531406823374,225,1531406823382,303,1531406823390,376,1531406823398,454,1531406823406,525,1531406823414,598,1531406823422,671,1531406823430,718,1531406823438,720,1531406823446,679,1531406823454,591,1531406823462,449,1531406823470,300,1531406823478,183,1531406823486,78,1531406823494,-22,1531406823502,-105,1531406823510,-168,1531406823518,-183,1531406823526,-161,1531406823534,-154,1531406823542,-164,1531406823550,-154,1531406823558,-137,1531406823566,-142,1531406823574,-151,1531406823582,-137,1531406823590,-132,1531406823598,-134,1531406823606,-112,1531406823614,-105,1531406823622,-122,1531406823630,-127,1531406823638,-117,1531406823646,-112,1531406823654,-105,1531406823662,-105,1531406823670,-100,1531406823678,-93,1531406823686,-95,1531406823694,-88,1531406823702,-78,1531406823710,-39,1531406823718,46,1531406823726,132,1531406823734,98,1531406823742,-68,1531406823750,-95,1531406823758,-83,1531406823766,-310,1531406823774,15,1531406823782,1201,1531406823790,1660,1531406823798,793,1531406823806,-17,1531406823814,-168,1531406823822,-100,1531406823830,-15,1531406823838,17,1531406823846,-12,1531406823854,-10,1531406823862,7,1531406823870,20,1531406823878,51,1531406823886,88,1531406823894,144,1531406823902,225,1531406823910,303,1531406823918,376,1531406823926,454,1531406823934,525,1531406823942,598,1531406823950,671,1531406823958,718,1531406823966,720,1531406823974,679,1531406823982,591,1531406823990,449,1531406823998,300,1531406824006,183,1531406824014,78,1531406824022,-22,1531406824030,-105,1531406824038,-168,1531406824046,-183,1531406824054,-161,1531406824062,-154,1531406824070,-164,1531406824078,-154,1531406824086,-137,1531406824094,-142,1531406824102,-151,1531406824110,-137,1531406824118,-132,1531406824126,-134,1531406824134,-112,1531406824142,-105,1531406824150,-122,1531406824158,-127,1531406824166,-117,1531406824174,-112,1531406824182,-105,1531406824190,-105,1531406824198,-100,1531406824206,-93,1531406824214,-95,1531406824222,-88,1531406824230,-78,1531406824238,-39,1531406824246,46
1531406824254,132,1531406824262,98,1531406824270,-68,1531406824278,-95,1531406824286,-83,1531406824294,-310,1531406824302,15,1531406824310,1201,1531406824318,1660,1531406824326,793,1531406824334,-17,1531406824342,-168,1531406824350,-100,1531406824358,-15,1531406824366,17,1531406824374,-12,1531406824382,-10,1531406824390,7,1531406824398,20,1531406824406,51,1531406824414,88,1531406824422,144,1531406824430,225,1531406824438,303,1531406824446,376,1531406824454,454,1531406824462,525,1531406824470,598,1531406824478,671,1531406824486,718,1531406824494,720,1531406824502,679,1531406824510,591,1531406824518,449,1531406824526,300,1531406824534,183,1531406824542,78,1531406824550,-22,1531406824558,-105,1531406824566,-168,1531406824574,-183,1531406824582,-161,1531406824590,-154,1531406824598,-164,1531406824606,-154,1531406824614,-137,1531406824622,-142,1531406824630,-151,1531406824638,-137,1531406824646,-132,1531406824654,-134,1531406824662,-112,1531406824670,-105,1531406824678,-122,1531406824686,-127,1531406824694,-117,1531406824702,-112,1531406824710,-105,1531406824718,-105,1531406824726,-100,1531406824734,-93,1531406824742,-95,1531406824750,-88,1531406824758,-78,1531406824766,-39,1531406824774,46,1531406824782,132,1531406824790,98,1531406824798,-68,1531406824806,-95,1531406824814,-83,1531406824822,-310,1531406824830,15,1531406824838,1201,1531406824846,1660,1531406824854,793,1531406824862,-17,1531406824870,-168,1531406824878,-100,1531406824886,-15,1531406824894,17,1531406824902,-12,1531406824910,-10,1531406824918,7,1531406824926,20,1531406824934,51,1531406824942,88,1531406824950,144,1531406824958,225,1531406824966,303,1531406824974,376,1531406824982,454,1531406824990,525,1531406824998,598,1531406825006,671,1531406825014,718,1531406825022,720,1531406825030,679,1531406825038,591,1531406825046,449,1531406825054,300,1531406825062,183,1531406825070,78,1531406825078,-22,1531406825086,-105,1531406825094,-168,1531406825102,-183,1531406825110,-161,1531406825118,-154,1531406825126,-164,1531406825134,-154,1531406825142,-137,1531406825150,-142,1531406825158,-151,1531406825166,-137,1531406825174,-132,1531406825182,-134,1531406825190,-112,1531406825198,-105,1531406825206,-122,1531406825214,-127,1531406825222,-117,1531406825230,-112,1531406825238,-105,1531406825246,-105,1531406825254,-100,1531406825262,-93,1531406825270,-95,1531406825278,-88,1531406825286,-78,1531406825294,-39,1531406825302,46,1531406825310,132,1531406825318,98,1531406825326,-68,1531406825334,-95,1531406825342,-83,1531406825350,-310,1531406825358,15,1531406825366,1201,1531406825374,1660,1531406825382,793,1531406825390,-17,1531406825398,-168,1531406825406,-100,1531406825414,-15,1531406825422,17,1531406825430,-12,1531406825438,-10,1531406825446,7,1531406825454,20,1531406825462,51,1531406825470,88,1531406825478,144,1531406825486,225,1531406825494,303,1531406825502,376,1531406825510,454,1531406825518,525,1531406825526,598,1531406825534,671,1531406825542,718,1531406825550,720,1531406825558,679,1531406825566,591,1531406825574,449,1531406825582,300,1531406825590,183,1531406825598,78,1531406825606,-22,1531406825614,-105,1531406825622,-168,1531406825630,-183,1531406825638,-161,1531406825646,-154,1531406825654,-164,1531406825662,-154,1531406825670,-137,1531406825678,-142,1531406825686,-151,1531406825694,-137,1531406825702,-132,1531406825710,-134,1531406825718,-112,1531406825726,-105,1531406825734,-122,1531406825742,-127,1531406825750,-117,1531406825758,-112,1531406825766,-105,1531406825774,-105,1531406825782,-100,1531406825790,-93,1531406825798,-95,1531406825806,-88,1531406825814,-78,1531406825822,-39,1531406825830,46,1531406825838,132,1531406825846,98,1531406825854,-68,1531406825862,-95,1531406825870,-83,1531406825878,-310,1531406825886,15,1531406825894,1201,1531406825902,1660,1531406825910,793,1531406825918,-17,1531406825926,-168,1531406825934,-100,1531406825942,-15,1531406825950,17,1531406825958,-12,1531406825966,-10,1531406825974,7,1531406825982,20,1531406825990,51,1531406825998,88,1531406826006,144,1531406826014,225,1531406826022,303,1531406826030,376,1531406826038,454,1531406826046,525,1531406826054,598,1531406826062,671,1531406826070,718,1531406826078,720,1531406826086,679,1531406826094,591,1531406826102,449,1531406826110,300,1531406826118,183,1531406826126,78,1531406826134,-22,1531406826142,-105,1531406826150,-168,1531406826158,-183,1531406826166,-161,1531406826174,-154,1531406826182,-164,1531406826190,-154,1531406826198,-137,1531406826206,-142,1531406826214,-151,1531406826222,-137,1531406826230,-132,1531406826238,-134,1531406826246,-112,1531406826254,-105,1531406826262,-122,1531406826270,-127,1531406826278,-117,1531406826286,-112,1531406826294,-105,1531406826302,-105,1531406826310,-100,1531406826318,-93,1531406826326,-95,1531406826334,-88,1531406826342,-78,1531406826350,-39,1531406826358,46,1531406826366,132,1531406826374,98,1531406826382,-68,1531406826390,-95,1531406826398,-83,1531406826406,-310,1531406826414,15,1531406826422,1201,1531406826430,1660,1531406826438,793,1531406826446,-17,1531406826454,-168,1531406826462,-100,1531406826470,-15,1531406826478,17,1531406826486,-12,1531406826494,-10,1531406826502,7,1531406826510,20,1531406826518,51,1531406826526,88,1531406826534,144,1531406826542,225,1531406826550,303,1531406826558,376,1531406826566,454,1531406826574,525,1531406826582,598,1531406826590,671,1531406826598,718,1531406826606,720,1531406826614,679,1531406826622,591,1531406826630,449,1531406826638,300,1531406826646,183,1531406826654,78
1531406826662,-22,1531406826670,-105,1531406826678,-168,1531406826686,-183,1531406826694,-161,1531406826702,-154,1531406826710,-164,1531406826718,-154,1531406826726,-137,1531406826734,-142,1531406826742,-151,1531406826750,-137,1531406826758,-132,1531406826766,-134,1531406826774,-112,1531406826782,-105,1531406826790,-122,1531406826798,-127,1531406826806,-117,1531406826814,-112,1531406826822,-105,1531406826830,-105,1531406826838,-100,1531406826846,-93,1531406826854,-95,1531406826862,-88,1531406826870,-78,1531406826878,-39,1531406826886,46,1531406826894,132,1531406826902,98,1531406826910,-68,1531406826918,-95,1531406826926,-83,1531406826934,-310,1531406826942,15,1531406826950,1201,1531406826958,1660,1531406826966,793,1531406826974,-17,1531406826982,-168,1531406826990,-100,1531406826998,-15,1531406827006,17,1531406827014,-12,1531406827022,-10,1531406827030,7,1531406827038,20,1531406827046,51,1531406827054,88,1531406827062,144,1531406827070,225,1531406827078,303,1531406827086,376,1531406827094,454,1531406827102,525,1531406827110,598,1531406827118,671,1531406827126,718,1531406827134,720,1531406827142,679,1531406827150,591,1531406827158,449,1531406827166,300,1531406827174,183,1531406827182,78,1531406827190,-22,1531406827198,-105,1531406827206,-168,1531406827214,-183,1531406827222,-161,1531406827230,-154,1531406827238,-164,1531406827246,-154,1531406827254,-137,1531406827262,-142,1531406827270,-151,1531406827278,-137,1531406827286,-132,1531406827294,-134,1531406827302,-112,1531406827310,-105,1531406827318,-122,1531406827326,-127,1531406827334,-117,1531406827342,-112,1531406827350,-105,1531406827358,-105,1531406827366,-100,1531406827374,-93,1531406827382,-95,1531406827390,-88,1531406827398,-78,1531406827406,-39,1531406827414,46,1531406827422,132,1531406827430,98,1531406827438,-68,1531406827446,-95,1531406827454,-83,1531406827462,-310,1531406827470,15,1531406827478,1201,1531406827486,1660,1531406827494,793,1531406827502,-17,1531406827510,-168,1531406827518,-100,1531406827526,-15,1531406827534,17,1531406827542,-12,1531406827550,-10,1531406827558,7,1531406827566,20,1531406827574,51,1531406827582,88,1531406827590,144,1531406827598,225,1531406827606,303,1531406827614,376,1531406827622,454,1531406827630,525,1531406827638,598,1531406827646,671,1531406827654,718,1531406827662,720,1531406827670,679,1531406827678,591,1531406827686,449,1531406827694,300,1531406827702,183,1531406827710,78,1531406827718,-22,1531406827726,-105,1531406827734,-168,1531406827742,-183,1531406827750,-161,1531406827758,-154,1531406827766,-164,1531406827774,-154,1531406827782,-137,1531406827790,-142,1531406827798,-151,1531406827806,-137,1531406827814,-132,1531406827822,-134,1531406827830,-112,1531406827838,-105,1531406827846,-122,1531406827854,-127,1531406827862,-117,1531406827870,-112,1531406827878,-105,1531406827886,-105,1531406827894,-100,1531406827902,-93,1531406827910,-95,1531406827918,-88,1531406827926,-78,1531406827934,-39,1531406827942,46,1531406827950,132,1531406827958,98,1531406827966,-68,1531406827974,-95,1531406827982,-83,1531406827990,-310,1531406827998,15,1531406828006,1201,1531406828014,1660,1531406828022,793,1531406828030,-17,1531406828038,-168,1531406828046,-100,1531406828054,-15,1531406828062,17,1531406828070,-12,1531406828078,-10,1531406828086,7,1531406828094,20,1531406828102,51,1531406828110,88,1531406828118,144,1531406828126,225,1531406828134,303,1531406828142,376,1531406828150,454,1531406828158,525,1531406828166,598,1531406828174,671,1531406828182,718,1531406828190,720,1531406828198,679,1531406828206,591,1531406828214,449,1531406828222,300,1531406828230,183,1531406828238,78,1531406828246,-22,1531406828254,-105,1531406828262,-168,1531406828270,-183,1531406828278,-161,1531406828286,-154,1531406828294,-164,1531406828302,-154,1531406828310,-137,1531406828318,-142,1531406828326,-151,1531406828334,-137,1531406828342,-132,1531406828350,-134,1531406828358,-112,1531406828366,-105,1531406828374,-122,1531406828382,-127,1531406828390,-117,1531406828398,-112,1531406828406,-105,1531406828414,-105,1531406828422,-100,1531406828430,-93,1531406828438,-95,1531406828446,-88,1531406828454,-78,1531406828462,-39,1531406828470,46,1531406828478,132,1531406828486,98,1531406828494,-68,1531406828502,-95,1531406828510,-83,1531406828518,-310,1531406828526,15,1531406828534,1201,1531406828542,1660,1531406828550,793,1531406828558,-17,1531406828566,-168,1531406828574,-100,1531406828582,-15,1531406828590,17,1531406828598,-12,1531406828606,-10,1531406828614,7,1531406828622,20,1531406828630,51,1531406828638,88,1531406828646,144,1531406828654,225,1531406828662,303,1531406828670,376,1531406828678,454,1531406828686,525,1531406828694,598,1531406828702,671,1531406828710,718,1531406828718,720,1531406828726,679,1531406828734,591,1531406828742,449,1531406828750,300,1531406828758,183,1531406828766,78,1531406828774,-22,1531406828782,-105,1531406828790,-168,1531406828798,-183,1531406828806,-161,1531406828814,-154,1531406828822,-164,1531406828830,-154,1531406828838,-137,1531406828846,-142,1531406828854,-151,1531406828862,-137,1531406828870,-132,1531406828878,-134,1531406828886,-112,1531406828894,-105,1531406828902,-122,1531406828910,-127,1531406828918,-117,1531406828926,-112,1531406828934,-105,1531406828942,-105,1531406828950,-100,1531406828958,-93,1531406828966,-95,1531406828974,-88,1531406828982,-78,1531406828990,-39,1531406828998,46,1531406829006,132,1531406829014,98,1531406829022,-68,1531406829030,-95,1531406829038,-83,1531406829046,-310,1531406829054,15,1531406829062,1201
1531406829070,1660,1531406829078,793,1531406829086,-17,1531406829094,-168,1531406829102,-100,1531406829110,-15,1531406829118,17,1531406829126,-12,1531406829134,-10,1531406829142,7,1531406829150,20,1531406829158,51,1531406829166,88,1531406829174,144,1531406829182,225,1531406829190,303,1531406829198,376,1531406829206,454,1531406829214,525,1531406829222,598,1531406829230,671,1531406829238,718,1531406829246,720,1531406829254,679,1531406829262,591,1531406829270,449,1531406829278,300,1531406829286,183,1531406829294,78,1531406829302,-22,1531406829310,-105,1531406829318,-168,1531406829326,-183,1531406829334,-161,1531406829342,-154,1531406829350,-164,1531406829358,-154,1531406829366,-137,1531406829374,-142,1531406829382,-151,1531406829390,-137,1531406829398,-132,1531406829406,-134,1531406829414,-112,1531406829422,-105,1531406829430,-122,1531406829438,-127,1531406829446,-117,1531406829454,-112,1531406829462,-105,1531406829470,-105,1531406829478,-100,1531406829486,-93,1531406829494,-95,1531406829502,-88,1531406829510,-78,1531406829518,-39,1531406829526,46,1531406829534,132,1531406829542,98,1531406829550,-68,1531406829558,-95,1531406829566,-83,1531406829574,-310,1531406829582,15,1531406829590,1201,1531406829598,1660,1531406829606,793,1531406829614,-17,1531406829622,-168,1531406829630,-100,1531406829638,-15,1531406829646,17,1531406829654,-12,1531406829662,-10,1531406829670,7,1531406829678,20,1531406829686,51,1531406829694,88,1531406829702,144,1531406829710,225,1531406829718,303,1531406829726,376,1531406829734,454,1531406829742,525,1531406829750,598,1531406829758,671,1531406829766,718,1531406829774,720,1531406829782,679,1531406829790,591,1531406829798,449,1531406829806,300,1531406829814,183,1531406829822,78,1531406829830,-22,1531406829838,-105,1531406829846,-168,1531406829854,-183,1531406829862,-161,1531406829870,-154,1531406829878,-164,1531406829886,-154,1531406829894,-137,1531406829902,-142,1531406829910,-151,1531406829918,-137,1531406829926,-132,1531406829934,-134,1531406829942,-112,1531406829950,-105,1531406829958,-122,1531406829966,-127,1531406829974,-117,1531406829982,-112,1531406829990,-105,1531406829998,-105,1531406830006,-100,1531406830014,-93,1531406830022,-95,1531406830030,-88,1531406830038,-78,1531406830046,-39,1531406830054,46,1531406830062,132,1531406830070,98,1531406830078,-68,1531406830086,-95,1531406830094,-83,1531406830102,-310,1531406830110,15,1531406830118,1201,1531406830126,1660,1531406830134,793,1531406830142,-17,1531406830150,-168,1531406830158,-100,1531406830166,-15,1531406830174,17,1531406830182,-12,1531406830190,-10,1531406830198,7,1531406830206,20,1531406830214,51,1531406830222,88,1531406830230,144,1531406830238,225,1531406830246,303,1531406830254,376,1531406830262,454,1531406830270,525,1531406830278,598,1531406830286,671,1531406830294,718,1531406830302,720,1531406830310,679,1531406830318,591,1531406830326,449,1531406830334,300,1531406830342,183,1531406830350,78,1531406830358,-22,1531406830366,-105,1531406830374,-168,1531406830382,-183,1531406830390,-161,1531406830398,-154,1531406830406,-164,1531406830414,-154,1531406830422,-137,1531406830430,-142,1531406830438,-151,1531406830446,-137,1531406830454,-132,1531406830462,-134,1531406830470,-112,1531406830478,-105,1531406830486,-122,1531406830494,-127,1531406830502,-117,1531406830510,-112,1531406830518,-105,1531406830526,-105,1531406830534,-100,1531406830542,-93,1531406830550,-95,1531406830558,-88,1531406830566,-78,1531406830574,-39,1531406830582,46,1531406830590,132,1531406830598,98,1531406830606,-68,1531406830614,-95,1531406830622,-83,1531406830630,-310,1531406830638,15,1531406830646,1201,1531406830654,1660,1531406830662,793,1531406830670,-17,1531406830678,-168,1531406830686,-100,1531406830694,-15,1531406830702,17,1531406830710,-12,1531406830718,-10,1531406830726,7,1531406830734,20,1531406830742,51,1531406830750,88,1531406830758,144,1531406830766,225,1531406830774,303,1531406830782,376,1531406830790,454,1531406830798,525,1531406830806,598,1531406830814,671,1531406830822,718,1531406830830,720,1531406830838,679,1531406830846,591,1531406830854,449,1531406830862,300,1531406830870,183,1531406830878,78,1531406830886,-22,1531406830894,-105,1531406830902,-168,1531406830910,-183,1531406830918,-161,1531406830926,-154,1531406830934,-164,1531406830942,-154,1531406830950,-137,1531406830958,-142,1531406830966,-151,1531406830974,-137,1531406830982,-132,1531406830990,-134,1531406830998,-112,1531406831006,-105,1531406831014,-122,1531406831022,-127,1531406831030,-117,1531406831038,-112,1531406831046,-105,1531406831054,-105,1531406831062,-100,1531406831070,-93,1531406831078,-95,1531406831086,-88,1531406831094,-78,1531406831102,-39,1531406831110,46,1531406831118,132,1531406831126,98,1531406831134,-68,1531406831142,-95,1531406831150,-83,1531406831158,-310,1531406831166,15,1531406831174,1201,1531406831182,1660,1531406831190,793,1531406831198,-17,1531406831206,-168,1531406831214,-100,1531406831222,-15,1531406831230,17,1531406831238,-12,1531406831246,-10,1531406831254,7,1531406831262,20,1531406831270,51,1531406831278,88,1531406831286,144,1531406831294,225,1531406831302,303,1531406831310,376,1531406831318,454,1531406831326,525,1531406831334,598,1531406831342,671,1531406831350,718,1531406831358,720,1531406831366,679,1531406831374,591,1531406831382,449,1531406831390,300,1531406831398,183,1531406831406,78,1531406831414,-22,1531406831422,-105,1531406831430,-168,1531406831438,-183,1531406831446,-161,1531406831454,-154,1531406831462,-164,1531406831470,-154
1531406831478,-137,1531406831486,-142,1531406831494,-151,1531406831502,-137,1531406831510,-132,1531406831518,-134,1531406831526,-112,1531406831534,-105,1531406831542,-122,1531406831550,-127,1531406831558,-117,1531406831566,-112,1531406831574,-105,1531406831582,-105,1531406831590,-100,1531406831598,-93,1531406831606,-95,1531406831614,-88,1531406831622,-78,1531406831630,-39,1531406831638,46,1531406831646,132,1531406831654,98,1531406831662,-68,1531406831670,-95,1531406831678,-83,1531406831686,-310,1531406831694,15,1531406831702,1201,1531406831710,1660,1531406831718,793,1531406831726,-17,1531406831734,-168,1531406831742,-100,1531406831750,-15,1531406831758,17,1531406831766,-12,1531406831774,-10,1531406831782,7,1531406831790,20,1531406831798,51,1531406831806,88,1531406831814,144,1531406831822,225,1531406831830,303,1531406831838,376,1531406831846,454,1531406831854,525,1531406831862,598,1531406831870,671,1531406831878,718,1531406831886,720,1531406831894,679,1531406831902,591,1531406831910,449,1531406831918,300,1531406831926,183,1531406831934,78,1531406831942,-22,1531406831950,-105,1531406831958,-168,1531406831966,-183,1531406831974,-161,1531406831982,-154,1531406831990,-164,1531406831998,-154,1531406832006,-137,1531406832014,-142,1531406832022,-151,1531406832030,-137,1531406832038,-132,1531406832046,-134,1531406832054,-112,1531406832062,-105,1531406832070,-122,1531406832078,-127,1531406832086,-117,1531406832094,-112,1531406832102,-105,1531406832110,-105,1531406832118,-100,1531406832126,-93,1531406832134,-95,1531406832142,-88,1531406832150,-78,1531406832158,-39,1531406832166,46,1531406832174,132,1531406832182,98,1531406832190,-68,1531406832198,-95,1531406832206,-83,1531406832214,-310,1531406832222,15,1531406832230,1201,1531406832238,1660,1531406832246,793,1531406832254,-17,1531406832262,-168,1531406832270,-100,1531406832278,-15,1531406832286,17,1531406832294,-12,1531406832302,-10,1531406832310,7,1531406832318,20,1531406832326,51,1531406832334,88,1531406832342,144,1531406832350,225,1531406832358,303,1531406832366,376,1531406832374,454,1531406832382,525,1531406832390,598,1531406832398,671,1531406832406,718,1531406832414,720,1531406832422,679,1531406832430,591,1531406832438,449,1531406832446,300,1531406832454,183,1531406832462,78,1531406832470,-22,1531406832478,-105,1531406832486,-168,1531406832494,-183,1531406832502,-161,1531406832510,-154,1531406832518,-164,1531406832526,-154,1531406832534,-137,1531406832542,-142,1531406832550,-151,1531406832558,-137,1531406832566,-132,1531406832574,-134,1531406832582,-112,1531406832590,-105,1531406832598,-122,1531406832606,-127,1531406832614,-117,1531406832622,-112,1531406832630,-105,1531406832638,-105,1531406832646,-100,1531406832654,-93,1531406832662,-95,1531406832670,-88,1531406832678,-78,1531406832686,-39,1531406832694,46,1531406832702,132,1531406832710,98,1531406832718,-68,1531406832726,-95,1531406832734,-83,1531406832742,-310,1531406832750,15,1531406832758,1201,1531406832766,1660,1531406832774,793,1531406832782,-17,1531406832790,-168,1531406832798,-100,1531406832806,-15,1531406832814,17,1531406832822,-12,1531406832830,-10,1531406832838,7,1531406832846,20,1531406832854,51,1531406832862,88,1531406832870,144,1531406832878,225,1531406832886,303,1531406832894,376,1531406832902,454,1531406832910,525,1531406832918,598,1531406832926,671,1531406832934,718,1531406832942,720,1531406832950,679,1531406832958,591,1531406832966,449,1531406832974,300,1531406832982,183,1531406832990,78,1531406832998,-22,1531406833006,-105,1531406833014,-168,1531406833022,-183,1531406833030,-161,1531406833038,-154,1531406833046,-164,1531406833054,-154,1531406833062,-137,1531406833070,-142,1531406833078,-151,1531406833086,-137,1531406833094,-132,1531406833102,-134,1531406833110,-112,1531406833118,-105,1531406833126,-122,1531406833134,-127,1531406833142,-117,1531406833150,-112,1531406833158,-105,1531406833166,-105,1531406833174,-100,1531406833182,-93,1531406833190,-95,1531406833198,-88,1531406833206,-78,1531406833214,-39,1531406833222,46,1531406833230,132,1531406833238,98,1531406833246,-68,1531406833254,-95,1531406833262,-83,1531406833270,-310,1531406833278,15,1531406833286,1201,1531406833294,1660,1531406833302,793,1531406833310,-17,1531406833318,-168,1531406833326,-100,1531406833334,-15,1531406833342,17,1531406833350,-12,1531406833358,-10,1531406833366,7,1531406833374,20,1531406833382,51,1531406833390,88,1531406833398,144,1531406833406,225,1531406833414,303,1531406833422,376,1531406833430,454,1531406833438,525,1531406833446,598,1531406833454,671,1531406833462,718,1531406833470,720,1531406833478,679,1531406833486,591,1531406833494,449,1531406833502,300,1531406833510,183,1531406833518,78,1531406833526,-22,1531406833534,-105,1531406833542,-168,1531406833550,-183,1531406833558,-161,1531406833566,-154,1531406833574,-164,1531406833582,-154,1531406833590,-137,1531406833598,-142,1531406833606,-151,1531406833614,-137,1531406833622,-132,1531406833630,-134,1531406833638,-112,1531406833646,-105,1531406833654,-122,1531406833662,-127,1531406833670,-117,1531406833678,-112,1531406833686,-105,1531406833694,-105,1531406833702,-100,1531406833710,-93,1531406833718,-95,1531406833726,-88,1531406833734,-78,1531406833742,-39,1531406833750,46,1531406833758,132,1531406833766,98,1531406833774,-68,1531406833782,-95,1531406833790,-83,1531406833798,-310,1531406833806,15,1531406833814,1201,1531406833822,1660,1531406833830,793,1531406833838,-17,1531406833846,-168,1531406833854,-100,1531406833862,-15,1531406833870,17,1531406833878,-12
1531406833886,-10,1531406833894,7,1531406833902,20,1531406833910,51,1531406833918,88,1531406833926,144,1531406833934,225,1531406833942,303,1531406833950,376,1531406833958,454,1531406833966,525,1531406833974,598,1531406833982,671,1531406833990,718,1531406833998,720,1531406834006,679,1531406834014,591,1531406834022,449,1531406834030,300,1531406834038,183,1531406834046,78,1531406834054,-22,1531406834062,-105,1531406834070,-168,1531406834078,-183,1531406834086,-161,1531406834094,-154,1531406834102,-164,1531406834110,-154,1531406834118,-137,1531406834126,-142,1531406834134,-151,1531406834142,-137,1531406834150,-132,1531406834158,-134,1531406834166,-112,1531406834174,-105,1531406834182,-122,1531406834190,-127,1531406834198,-117,1531406834206,-112,1531406834214,-105,1531406834222,-105,1531406834230,-100,1531406834238,-93,1531406834246,-95,1531406834254,-88,1531406834262,-78,1531406834270,-39,1531406834278,46,1531406834286,132,1531406834294,98,1531406834302,-68,1531406834310,-95,1531406834318,-83,1531406834326,-310,1531406834334,15,1531406834342,1201,1531406834350,1660,1531406834358,793,1531406834366,-17,1531406834374,-168,1531406834382,-100,1531406834390,-15,1531406834398,17,1531406834406,-12,1531406834414,-10,1531406834422,7,1531406834430,20,1531406834438,51,1531406834446,88,1531406834454,144,1531406834462,225,1531406834470,303,1531406834478,376,1531406834486,454,1531406834494,525,1531406834502,598,1531406834510,671,1531406834518,718,1531406834526,720,1531406834534,679,1531406834542,591,1531406834550,449,1531406834558,300,1531406834566,183,1531406834574,78,1531406834582,-22,1531406834590,-105,1531406834598,-168,1531406834606,-183,1531406834614,-161,1531406834622,-154,1531406834630,-164,1531406834638,-154,1531406834646,-137,1531406834654,-142,1531406834662,-151,1531406834670,-137,1531406834678,-132,1531406834686,-134,1531406834694,-112,1531406834702,-105,1531406834710,-122,1531406834718,-127,1531406834726,-117,1531406834734,-112,1531406834742,-105,1531406834750,-105,1531406834758,-100,1531406834766,-93,1531406834774,-95,1531406834782,-88,1531406834790,-78,1531406834798,-39,1531406834806,46,1531406834814,132,1531406834822,98,1531406834830,-68,1531406834838,-95,1531406834846,-83,1531406834854,-310,1531406834862,15,1531406834870,1201,1531406834878,1660,1531406834886,793,1531406834894,-17,1531406834902,-168,1531406834910,-100,1531406834918,-15,1531406834926,17,1531406834934,-12,1531406834942,-10,1531406834950,7,1531406834958,20,1531406834966,51,1531406834974,88,1531406834982,144,1531406834990,225,1531406834998,303,1531406835006,376,1531406835014,454,1531406835022,525,1531406835030,598,1531406835038,671,1531406835046,718,1531406835054,720,1531406835062,679,1531406835070,591,1531406835078,449,1531406835086,300,1531406835094,183,1531406835102,78,1531406835110,-22,1531406835118,-105,1531406835126,-168,1531406835134,-183,1531406835142,-161,1531406835150,-154,1531406835158,-164,1531406835166,-154,1531406835174,-137,1531406835182,-142,1531406835190,-151,1531406835198,-137,1531406835206,-132,1531406835214,-134,1531406835222,-112,1531406835230,-105,1531406835238,-122,1531406835246,-127,1531406835254,-117,1531406835262,-112,1531406835270,-105,1531406835278,-105,1531406835286,-100,1531406835294,-93,1531406835302,-95,1531406835310,-88,1531406835318,-78,1531406835326,-39,1531406835334,46,1531406835342,132,1531406835350,98,1531406835358,-68,1531406835366,-95,1531406835374,-83,1531406835382,-310,1531406835390,15,1531406835398,1201,1531406835406,1660,1531406835414,793,1531406835422,-17,1531406835430,-168,1531406835438,-100,1531406835446,-15,1531406835454,17,1531406835462,-12,1531406835470,-10,1531406835478,7,1531406835486,20,1531406835494,51,1531406835502,88,1531406835510,144,1531406835518,225,1531406835526,303,1531406835534,376,1531406835542,454,1531406835550,525,1531406835558,598,1531406835566,671,1531406835574,718,1531406835582,720,1531406835590,679,1531406835598,591,1531406835606,449,1531406835614,300,1531406835622,183,1531406835630,78,1531406835638,-22,1531406835646,-105,1531406835654,-168,1531406835662,-183,1531406835670,-161,1531406835678,-154,1531406835686,-164,1531406835694,-154,1531406835702,-137,1531406835710,-142,1531406835718,-151,1531406835726,-137,1531406835734,-132,1531406835742,-134,1531406835750,-112,1531406835758,-105,1531406835766,-122,1531406835774,-127,1531406835782,-117,1531406835790,-112,1531406835798,-105,1531406835806,-105,1531406835814,-100,1531406835822,-93,1531406835830,-95,1531406835838,-88,1531406835846,-78,1531406835854,-39,1531406835862,46,1531406835870,132,1531406835878,98,1531406835886,-68,1531406835894,-95,1531406835902,-83,1531406835910,-310,1531406835918,15,1531406835926,1201,1531406835934,1660,1531406835942,793,1531406835950,-17,1531406835958,-168,1531406835966,-100,1531406835974,-15,1531406835982,17,1531406835990,-12,1531406835998,-10,1531406836006,7,1531406836014,20,1531406836022,51,1531406836030,88,1531406836038,144,1531406836046,225,1531406836054,303,1531406836062,376,1531406836070,454,1531406836078,525,1531406836086,598,1531406836094,671,1531406836102,718,1531406836110,720,1531406836118,679,1531406836126,591,1531406836134,449,1531406836142,300,1531406836150,183,1531406836158,78,1531406836166,-22,1531406836174,-105,1531406836182,-168,1531406836190,-183,1531406836198,-161,1531406836206,-154,1531406836214,-164,1531406836222,-154,1531406836230,-137,1531406836238,-142,1531406836246,-151,1531406836254,-137,1531406836262,-132,1531406836270,-134,1531406836278,-112,1531406836286,-105
1531406836294,-122,1531406836302,-127,1531406836310,-117,1531406836318,-112,1531406836326,-105,1531406836334,-105,1531406836342,-100,1531406836350,-93,1531406836358,-95,1531406836366,-88,1531406836374,-78,1531406836382,-39,1531406836390,46,1531406836398,132,1531406836406,98,1531406836414,-68,1531406836422,-95,1531406836430,-83,1531406836438,-310,1531406836446,15,1531406836454,1201,1531406836462,1660,1531406836470,793,1531406836478,-17,1531406836486,-168,1531406836494,-100,1531406836502,-15,1531406836510,17,1531406836518,-12,1531406836526,-10,1531406836534,7,1531406836542,20,1531406836550,51,1531406836558,88,1531406836566,144,1531406836574,225,1531406836582,303,1531406836590,376,1531406836598,454,1531406836606,525,1531406836614,598,1531406836622,671,1531406836630,718,1531406836638,720,1531406836646,679,1531406836654,591,1531406836662,449,1531406836670,300,1531406836678,183,1531406836686,78,1531406836694,-22,1531406836702,-105,1531406836710,-168,1531406836718,-183,1531406836726,-161,1531406836734,-154,1531406836742,-164,1531406836750,-154,1531406836758,-137,1531406836766,-142,1531406836774,-151,1531406836782,-137,1531406836790,-132,1531406836798,-134,1531406836806,-112,1531406836814,-105,1531406836822,-122,1531406836830,-127,1531406836838,-117,1531406836846,-112,1531406836854,-105,1531406836862,-105,1531406836870,-100,1531406836878,-93,1531406836886,-95,1531406836894,-88,1531406836902,-78,1531406836910,-39,1531406836918,46,1531406836926,132,1531406836934,98,1531406836942,-68,1531406836950,-95,1531406836958,-83,1531406836966,-310,1531406836974,15,1531406836982,1201,1531406836990,1660,1531406836998,793,1531406837006,-17,1531406837014,-168,1531406837022,-100,1531406837030,-15,1531406837038,17,1531406837046,-12,1531406837054,-10,1531406837062,7,1531406837070,20,1531406837078,51,1531406837086,88,1531406837094,144,1531406837102,225,1531406837110,303,1531406837118,376,1531406837126,454,1531406837134,525,1531406837142,598,1531406837150,671,1531406837158,718,1531406837166,720,1531406837174,679,1531406837182,591,1531406837190,449,1531406837198,300,1531406837206,183,1531406837214,78,1531406837222,-22,1531406837230,-105,1531406837238,-168,1531406837246,-183,1531406837254,-161,1531406837262,-154,1531406837270,-164,1531406837278,-154,1531406837286,-137,1531406837294,-142,1531406837302,-151,1531406837310,-137,1531406837318,-132,1531406837326,-134,1531406837334,-112,1531406837342,-105,1531406837350,-122,1531406837358,-127,1531406837366,-117,1531406837374,-112,1531406837382,-105,1531406837390,-105,1531406837398,-100,1531406837406,-93,1531406837414,-95,1531406837422,-88,1531406837430,-78,1531406837438,-39,1531406837446,46,1531406837454,132,1531406837462,98,1531406837470,-68,1531406837478,-95,1531406837486,-83,1531406837494,-310,1531406837502,15,1531406837510,1201,1531406837518,1660,1531406837526,793,1531406837534,-17,1531406837542,-168,1531406837550,-100,1531406837558,-15,1531406837566,17,1531406837574,-12,1531406837582,-10,1531406837590,7,1531406837598,20,1531406837606,51,1531406837614,88,1531406837622,144,1531406837630,225,1531406837638,303,1531406837646,376,1531406837654,454,1531406837662,525,1531406837670,598,1531406837678,671,1531406837686,718,1531406837694,720,1531406837702,679,1531406837710,591,1531406837718,449,1531406837726,300,1531406837734,183,1531406837742,78,1531406837750,-22,1531406837758,-105,1531406837766,-168,1531406837774,-183,1531406837782,-161,1531406837790,-154,1531406837798,-164,1531406837806,-154,1531406837814,-137,1531406837822,-142,1531406837830,-151,1531406837838,-137,1531406837846,-132,1531406837854,-134,1531406837862,-112,1531406837870,-105,1531406837878,-122,1531406837886,-127,1531406837894,-117,1531406837902,-112,1531406837910,-105,1531406837918,-105,1531406837926,-100,1531406837934,-93,1531406837942,-95,1531406837950,-88,1531406837958,-78,1531406837966,-39,1531406837974,46,1531406837982,132,1531406837990,98,1531406837998,-68,1531406838006,-95,1531406838014,-83,1531406838022,-310,1531406838030,15,1531406838038,1201,1531406838046,1660,1531406838054,793,1531406838062,-17,1531406838070,-168,1531406838078,-100,1531406838086,-15,1531406838094,17,1531406838102,-12,1531406838110,-10,1531406838118,7,1531406838126,20,1531406838134,51,1531406838142,88,1531406838150,144,1531406838158,225,1531406838166,303,1531406838174,376,1531406838182,454,1531406838190,525,1531406838198,598,1531406838206,671,1531406838214,718,1531406838222,720,1531406838230,679,1531406838238,591,1531406838246,449,1531406838254,300,1531406838262,183,1531406838270,78,1531406838278,-22,1531406838286,-105,1531406838294,-168,1531406838302,-183,1531406838310,-161,1531406838318,-154,1531406838326,-164,1531406838334,-154,1531406838342,-137,1531406838350,-142,1531406838358,-151,1531406838366,-137,1531406838374,-132,1531406838382,-134,1531406838390,-112,1531406838398,-105,1531406838406,-122,1531406838414,-127,1531406838422,-117,1531406838430,-112,1531406838438,-105,1531406838446,-105,1531406838454,-100,1531406838462,-93,1531406838470,-95,1531406838478,-88,1531406838486,-78,1531406838494,-39,1531406838502,46,1531406838510,132,1531406838518,98,1531406838526,-68,1531406838534,-95,1531406838542,-83,1531406838550,-310,1531406838558,15,1531406838566,1201,1531406838574,1660,1531406838582,793,1531406838590,-17,1531406838598,-168,1531406838606,-100,1531406838614,-15,1531406838622,17,1531406838630,-12,1531406838638,-10,1531406838646,7,1531406838654,20,1531406838662,51,1531406838670,88,1531406838678,144,1531406838686,225,1531406838694,303
1531406838702,376,1531406838710,454,1531406838718,525,1531406838726,598,1531406838734,671,1531406838742,718,1531406838750,720,1531406838758,679,1531406838766,591,1531406838774,449,1531406838782,300,1531406838790,183,1531406838798,78,1531406838806,-22,1531406838814,-105,1531406838822,-168,1531406838830,-183,1531406838838,-161,1531406838846,-154,1531406838854,-164,1531406838862,-154,1531406838870,-137,1531406838878,-142,1531406838886,-151,1531406838894,-137,1531406838902,-132,1531406838910,-134,1531406838918,-112,1531406838926,-105,1531406838934,-122,1531406838942,-127,1531406838950,-117,1531406838958,-112,1531406838966,-105,1531406838974,-105,1531406838982,-100,1531406838990,-93,1531406838998,-95,1531406839006,-88,1531406839014,-78,1531406839022,-39,1531406839030,46,1531406839038,132,1531406839046,98,1531406839054,-68,1531406839062,-95,1531406839070,-83,1531406839078,-310,1531406839086,15,1531406839094,1201,1531406839102,1660,1531406839110,793,1531406839118,-17,1531406839126,-168,1531406839134,-100,1531406839142,-15,1531406839150,17,1531406839158,-12,1531406839166,-10,1531406839174,7,1531406839182,20,1531406839190,51,1531406839198,88,1531406839206,144,1531406839214,225,1531406839222,303,1531406839230,376,1531406839238,454,1531406839246,525,1531406839254,598,1531406839262,671,1531406839270,718,1531406839278,720,1531406839286,679,1531406839294,591,1531406839302,449,1531406839310,300,1531406839318,183,1531406839326,78,1531406839334,-22,1531406839342,-105,1531406839350,-168,1531406839358,-183,1531406839366,-161,1531406839374,-154,1531406839382,-164,1531406839390,-154,1531406839398,-137,1531406839406,-142,1531406839414,-151,1531406839422,-137,1531406839430,-132,1531406839438,-134,1531406839446,-112,1531406839454,-105,1531406839462,-122,1531406839470,-127,1531406839478,-117,1531406839486,-112,1531406839494,-105,1531406839502,-105,1531406839510,-100,1531406839518,-93,1531406839526,-95,1531406839534,-88,1531406839542,-78,1531406839550,-39,1531406839558,46,1531406839566,132,1531406839574,98,1531406839582,-68,1531406839590,-95,1531406839598,-83,1531406839606,-310,1531406839614,15,1531406839622,1201,1531406839630,1660,1531406839638,793,1531406839646,-17,1531406839654,-168,1531406839662,-100,1531406839670,-15,1531406839678,17,1531406839686,-12,1531406839694,-10,1531406839702,7,1531406839710,20,1531406839718,51,1531406839726,88,1531406839734,144,1531406839742,225,1531406839750,303,1531406839758,376,1531406839766,454,1531406839774,525,1531406839782,598,1531406839790,671,1531406839798,718,1531406839806,720,1531406839814,679,1531406839822,591,1531406839830,449,1531406839838,300,1531406839846,183,1531406839854,78,1531406839862,-22,1531406839870,-105,1531406839878,-168,1531406839886,-183,1531406839894,-161,1531406839902,-154,1531406839910,-164,1531406839918,-154,1531406839926,-137,1531406839934,-142,1531406839942,-151,1531406839950,-137,1531406839958,-132,1531406839966,-134,1531406839974,-112,1531406839982,-105,1531406839990,-122,1531406839998,-127,1531406840006,-117,1531406840014,-112,1531406840022,-105,1531406840030,-105,1531406840038,-100,1531406840046,-93,1531406840054,-95,1531406840062,-88,1531406840070,-78,1531406840078,-39,1531406840086,46,1531406840094,132,1531406840102,98,1531406840110,-68,1531406840118,-95,1531406840126,-83,1531406840134,-310,1531406840142,15,1531406840150,1201,1531406840158,1660,1531406840166,793,1531406840174,-17,1531406840182,-168,1531406840190,-100,1531406840198,-15,1531406840206,17,1531406840214,-12,1531406840222,-10,1531406840230,7,1531406840238,20,1531406840246,51,1531406840254,88,1531406840262,144,1531406840270,225,1531406840278,303,1531406840286,376,1531406840294,454,1531406840302,525,1531406840310,598,1531406840318,671,1531406840326,718,1531406840334,720,1531406840342,679,1531406840350,591,1531406840358,449,1531406840366,300,1531406840374,183,1531406840382,78,1531406840390,-22,1531406840398,-105,1531406840406,-168,1531406840414,-183,1531406840422,-161,1531406840430,-154,1531406840438,-164,1531406840446,-154,1531406840454,-137,1531406840462,-142,1531406840470,-151,1531406840478,-137,1531406840486,-132,1531406840494,-134,1531406840502,-112,1531406840510,-105,1531406840518,-122,1531406840526,-127,1531406840534,-117,1531406840542,-112,1531406840550,-105,1531406840558,-105,1531406840566,-100,1531406840574,-93,1531406840582,-95,1531406840590,-88,1531406840598,-78,1531406840606,-39,1531406840614,46,1531406840622,132,1531406840630,98,1531406840638,-68,1531406840646,-95,1531406840654,-83,1531406840662,-310,1531406840670,15,1531406840678,1201,1531406840686,1660,1531406840694,793,1531406840702,-17,1531406840710,-168,1531406840718,-100,1531406840726,-15,1531406840734,17,1531406840742,-12,1531406840750,-10,1531406840758,7,1531406840766,20,1531406840774,51,1531406840782,88,1531406840790,144,1531406840798,225,1531406840806,303,1531406840814,376,1531406840822,454,1531406840830,525,1531406840838,598,1531406840846,671,1531406840854,718,1531406840862,720,1531406840870,679,1531406840878,591,1531406840886,449,1531406840894,300,1531406840902,183,1531406840910,78,1531406840918,-22,1531406840926,-105,1531406840934,-168,1531406840942,-183,1531406840950,-161,1531406840958,-154,1531406840966,-164,1531406840974,-154,1531406840982,-137,1531406840990,-142,1531406840998,-151,1531406841006,-137,1531406841014,-132,1531406841022,-134,1531406841030,-112,1531406841038,-105,1531406841046,-122,1531406841054,-127,1531406841062,-117,1531406841070,-112,1531406841078,-105,1531406841086,-105,1531406841094,-100,1531406841102,-93
